time,ppg
300.0,1.72922776148583
300.008,1.72727272727273
300.016,1.71749755620723
300.024,1.69990224828935
300.032,1.67741935483871
300.04,1.65395894428153
300.048,1.63147605083089
300.056,1.61094819159335
300.064,1.59237536656891
300.072,1.57575757575758
300.08,1.56402737047898
300.088,1.55522971652004
300.096,1.54740957966764
300.104,1.53958944281525
300.112,1.53176930596285
300.12,1.52394916911046
300.128,1.51319648093842
300.136,1.50048875855327
300.144,1.48680351906158
300.152,1.47018572825024
300.16,1.45161290322581
300.168,1.43304007820137
300.176,1.41544477028348
300.184,1.40078201368524
300.192,1.3880742913001
300.2,1.37243401759531
300.208,1.35386119257087
300.216,1.33431085043988
300.224,1.3147605083089
300.232,1.29423264907136
300.24,1.27272727272727
300.248,1.25122189638319
300.256,1.23069403714565
300.264,1.21212121212121
300.272,1.19354838709677
300.28,1.17986314760508
300.288,1.16813294232649
300.296,1.15347018572825
300.304,1.13685239491691
300.312,1.11730205278592
300.32,1.09872922776149
300.328,1.0811339198436
300.336,1.06451612903226
300.344,1.04887585532747
300.352,1.03421309872923
300.36,1.01955034213099
300.368,1.0058651026393
300.376,0.993157380254154
300.384,0.986314760508309
300.392,0.981427174975562
300.4,0.973607038123167
300.408,0.964809384164223
300.416,0.955034213098729
300.424,0.944281524926686
300.432,0.935483870967742
300.44,0.930596285434995
300.448,0.931573802541544
300.456,0.943304007820137
300.464,0.970674486803519
300.472,1.01564027370479
300.48,1.069403714565
300.488,1.13196480938416
300.496,1.21212121212121
300.504,1.30596285434995
300.512,1.40762463343109
300.52,1.51221896383187
300.528,1.6177908113392
300.536,1.72336265884653
300.544,1.82893450635386
300.552,1.93352883675464
300.56,2.03812316715543
300.568,2.14271749755621
300.576,2.24437927663734
300.584,2.32844574780059
300.592,2.40273704789834
300.6,2.48484848484848
300.608,2.56793743890518
300.616,2.65004887585533
300.624,2.73118279569892
300.632,2.80840664711632
300.64,2.87976539589443
300.648,2.94525904203324
300.656,3.00293255131965
300.664,3.05180840664712
300.672,3.08993157380254
300.68,3.10948191593353
300.688,3.11534701857282
300.696,3.11436950146628
300.704,3.10361681329423
300.712,3.0830889540567
300.72,3.05278592375367
300.728,3.01173020527859
300.736,2.96285434995112
300.744,2.90909090909091
300.752,2.8533724340176
300.76,2.79863147605083
300.768,2.74584555229716
300.776,2.6969696969697
300.784,2.65004887585533
300.792,2.60215053763441
300.8,2.55522971652004
300.808,2.50733137829912
300.816,2.45845552297165
300.824,2.40860215053763
300.832,2.35972629521017
300.84,2.3108504398827
300.848,2.26197458455523
300.856,2.21016617790811
300.864,2.1564027370479
300.872,2.10068426197458
300.88,2.04985337243402
300.888,2.0019550342131
300.896,1.95014662756598
300.904,1.89931573802542
300.912,1.85043988269795
300.92,1.80351906158358
300.928,1.75855327468231
300.936,1.71554252199413
300.944,1.67448680351906
300.952,1.63538611925709
300.96,1.59824046920821
300.968,1.56109481915934
300.976,1.52981427174976
300.984,1.50048875855327
300.992,1.4652981427175
301.0,1.42815249266862
301.008,1.39296187683284
301.016,1.36070381231672
301.024,1.33626588465298
301.032,1.32160312805474
301.04,1.31964809384164
301.048,1.33235581622678
301.056,1.36070381231672
301.064,1.40078201368524
301.072,1.4594330400782
301.08,1.52199413489736
301.088,1.57673509286413
301.096,1.63343108504399
301.104,1.69012707722385
301.112,1.74682306940371
301.12,1.80156402737048
301.128,1.85532746823069
301.136,1.90811339198436
301.144,1.95992179863148
301.152,2.01075268817204
301.16,2.06060606060606
301.168,2.10752688172043
301.176,2.14467253176931
301.184,2.17595307917889
301.192,2.21016617790811
301.2,2.24340175953079
301.208,2.27272727272727
301.216,2.29716520039101
301.224,2.3147605083089
301.232,2.32453567937439
301.24,2.32453567937439
301.248,2.31378299120235
301.256,2.29227761485826
301.264,2.26197458455523
301.272,2.22678396871945
301.28,2.19257086999022
301.288,2.158357771261
301.296,2.12316715542522
301.304,2.08895405669599
301.312,2.05669599217986
301.32,2.02443792766373
301.328,1.99120234604106
301.336,1.95894428152493
301.344,1.92570869990225
301.352,1.89051808406647
301.36,1.8514173998045
301.368,1.80938416422287
301.376,1.77126099706745
301.384,1.73509286412512
301.392,1.69599217986315
301.4,1.65591397849462
301.408,1.6158357771261
301.416,1.57771260997067
301.424,1.54349951124145
301.432,1.51124144672532
301.44,1.47996089931574
301.448,1.45063538611926
301.456,1.42228739002933
301.464,1.39393939393939
301.472,1.36461388074291
301.48,1.34017595307918
301.488,1.31769305962854
301.496,1.29325513196481
301.504,1.26783968719453
301.512,1.24242424242424
301.52,1.21798631476051
301.528,1.19550342130987
301.536,1.17497556207234
301.544,1.1544477028348
301.552,1.13489736070381
301.56,1.11534701857282
301.568,1.09677419354839
301.576,1.08406647116325
301.584,1.0752688172043
301.592,1.06256109481916
301.6,1.04789833822092
301.608,1.03421309872923
301.616,1.02248289345064
301.624,1.01075268817204
301.632,1.0
301.64,0.990224828934506
301.648,0.980449657869013
301.656,0.970674486803519
301.664,0.960899315738025
301.672,0.950146627565982
301.68,0.943304007820137
301.688,0.93841642228739
301.696,0.930596285434995
301.704,0.921798631476051
301.712,0.914956011730205
301.72,0.90811339198436
301.728,0.901270772238514
301.736,0.895405669599218
301.744,0.890518084066471
301.752,0.887585532746823
301.76,0.885630498533724
301.768,0.884652981427175
301.776,0.887585532746823
301.784,0.89247311827957
301.792,0.897360703812317
301.8,0.909090909090909
301.808,0.931573802541544
301.816,0.967741935483871
301.824,1.01955034213099
301.832,1.08602150537634
301.84,1.16422287390029
301.848,1.25024437927664
301.856,1.34115347018573
301.864,1.43499511241447
301.872,1.52981427174976
301.88,1.61290322580645
301.888,1.6891495601173
301.896,1.77321603128055
301.904,1.86217008797654
301.912,1.95210166177908
301.92,2.04105571847507
301.928,2.12903225806452
301.936,2.21505376344086
301.944,2.29716520039101
301.952,2.37341153470186
301.96,2.44379276637341
301.968,2.50928641251222
301.976,2.55816226783969
301.984,2.59824046920821
301.992,2.63929618768328
302.0,2.67839687194526
302.008,2.71456500488759
302.016,2.74486803519062
302.024,2.76930596285435
302.032,2.78494623655914
302.04,2.79081133919844
302.048,2.78690127077224
302.056,2.77321603128055
302.064,2.75073313782991
302.072,2.72043010752688
302.08,2.68621700879765
302.088,2.64907135874878
302.096,2.61094819159335
302.104,2.57282502443793
302.112,2.53372434017595
302.12,2.49364613880743
302.128,2.45259042033236
302.136,2.41055718475073
302.144,2.36559139784946
302.152,2.31769305962854
302.16,2.26881720430108
302.168,2.21798631476051
302.176,2.17106549364614
302.184,2.12805474095797
302.192,2.08211143695015
302.2,2.03616813294233
302.208,1.99120234604106
302.216,1.94623655913978
302.224,1.90224828934506
302.232,1.86021505376344
302.24,1.82111436950147
302.248,1.78592375366569
302.256,1.75268817204301
302.264,1.72043010752688
302.272,1.69012707722385
302.28,1.66275659824047
302.288,1.63636363636364
302.296,1.60606060606061
302.304,1.57282502443793
302.312,1.5386119257087
302.32,1.50537634408602
302.328,1.47409579667644
302.336,1.44477028347996
302.344,1.41837732160313
302.352,1.39589442815249
302.36,1.37927663734115
302.368,1.36754643206256
302.376,1.36168132942326
302.384,1.35972629521017
302.392,1.35874877810362
302.4,1.35874877810362
302.408,1.35679374389052
302.416,1.35190615835777
302.424,1.34310850439883
302.432,1.32942326490714
302.44,1.3108504398827
302.448,1.28934506353861
302.456,1.26392961876833
302.464,1.23655913978495
302.472,1.21114369501466
302.48,1.19354838709677
302.488,1.17986314760508
302.496,1.16324535679374
302.504,1.14760508308895
302.512,1.13196480938416
302.52,1.11534701857282
302.528,1.10068426197458
302.536,1.08797653958944
302.544,1.0772238514174
302.552,1.06647116324536
302.56,1.05767350928641
302.568,1.05083088954057
302.576,1.04887585532747
302.584,1.04887585532747
302.592,1.04789833822092
302.6,1.04496578690127
302.608,1.04007820136852
302.616,1.03421309872923
302.624,1.02639296187683
302.632,1.01759530791789
302.64,1.00684261974585
302.648,0.995112414467253
302.656,0.98435972629521
302.664,0.973607038123167
302.672,0.96871945259042
302.68,0.966764418377322
302.688,0.962854349951124
302.696,0.957966764418377
302.704,0.952101661779081
302.712,0.947214076246334
302.72,0.945259042033236
302.728,0.944281524926686
302.736,0.943304007820137
302.744,0.943304007820137
302.752,0.942326490713588
302.76,0.940371456500489
302.768,0.93841642228739
302.776,0.940371456500489
302.784,0.945259042033236
302.792,0.947214076246334
302.8,0.948191593352884
302.808,0.949169110459433
302.816,0.948191593352884
302.824,0.945259042033236
302.832,0.940371456500489
302.84,0.933528836754643
302.848,0.92375366568915
302.856,0.912023460410557
302.864,0.902248289345064
302.872,0.901270772238514
302.88,0.90811339198436
302.888,0.924731182795699
302.896,0.955034213098729
302.904,1.0019550342131
302.912,1.06451612903226
302.92,1.13978494623656
302.928,1.2238514173998
302.936,1.3128054740958
302.944,1.40273704789834
302.952,1.48973607038123
302.96,1.57380254154448
302.968,1.65591397849462
302.976,1.72531769305963
302.984,1.78885630498534
302.992,1.86119257086999
303.0,1.93841642228739
303.008,2.01564027370479
303.016,2.09188660801564
303.024,2.16617790811339
303.032,2.23851417399804
303.04,2.3088954056696
303.048,2.37634408602151
303.056,2.43890518084066
303.064,2.49657869012708
303.072,2.5405669599218
303.08,2.57478005865103
303.088,2.6099706744868
303.096,2.64125122189638
303.104,2.66568914956012
303.112,2.67937438905181
303.12,2.73020527859238
303.128,2.79374389051808
303.136,2.81036168132942
303.144,2.79960899315738
303.152,2.77321603128055
303.16,2.73900293255132
303.168,2.70087976539589
303.176,2.66471163245357
303.184,2.62854349951124
303.192,2.59139784946237
303.2,2.55425219941349
303.208,2.51515151515152
303.216,2.47702834799609
303.224,2.43792766373412
303.232,2.39687194525904
303.24,2.35679374389052
303.248,2.31671554252199
303.256,2.27663734115347
303.264,2.2355816226784
303.272,2.19745845552297
303.28,2.16226783968719
303.288,2.12414467253177
303.296,2.08602150537634
303.304,2.04789833822092
303.312,2.00782013685239
303.32,1.96676441837732
303.328,1.92766373411535
303.336,1.88954056695992
303.344,1.85239491691105
303.352,1.81524926686217
303.36,1.78005865102639
303.368,1.74682306940371
303.376,1.71847507331378
303.384,1.6930596285435
303.392,1.66373411534702
303.4,1.63538611925709
303.408,1.6080156402737
303.416,1.58064516129032
303.424,1.55522971652004
303.432,1.5327468230694
303.44,1.51124144672532
303.448,1.49071358748778
303.456,1.47018572825024
303.464,1.44868035190616
303.472,1.43304007820137
303.48,1.42033235581623
303.488,1.40566959921799
303.496,1.3900293255132
303.504,1.37438905180841
303.512,1.35777126099707
303.52,1.34115347018573
303.528,1.32649071358749
303.536,1.31378299120235
303.544,1.3010752688172
303.552,1.28934506353861
303.56,1.27663734115347
303.568,1.26295210166178
303.576,1.25415444770283
303.584,1.24828934506354
303.592,1.24144672531769
303.6,1.23949169110459
303.608,1.24437927663734
303.616,1.26099706744868
303.624,1.29130009775171
303.632,1.33626588465298
303.64,1.39296187683284
303.648,1.4574780058651
303.656,1.52883675464321
303.664,1.60508308895406
303.672,1.67253176930596
303.68,1.73509286412512
303.688,1.80254154447703
303.696,1.87194525904203
303.704,1.94232649071359
303.712,2.01466275659824
303.72,2.08797653958944
303.728,2.16226783968719
303.736,2.23655913978495
303.744,2.3088954056696
303.752,2.3782991202346
303.76,2.44477028347996
303.768,2.50635386119257
303.776,2.55327468230694
303.784,2.59139784946237
303.792,2.62952101661779
303.8,2.66373411534702
303.808,2.6950146627566
303.816,2.71945259042033
303.824,2.73607038123167
303.832,2.74291300097752
303.84,2.73802541544477
303.848,2.72043010752688
303.856,2.69208211143695
303.864,2.65689149560117
303.872,2.6197458455523
303.88,2.58064516129032
303.888,2.5405669599218
303.896,2.50146627565982
303.904,2.4633431085044
303.912,2.42619745845552
303.92,2.3880742913001
303.928,2.34897360703812
303.936,2.30987292277615
303.944,2.26881720430108
303.952,2.22678396871945
303.96,2.18572825024438
303.968,2.14760508308895
303.976,2.11436950146628
303.984,2.08406647116325
303.992,2.05180840664712
304.0,2.01857282502444
304.008,1.98435972629521
304.016,1.94916911045943
304.024,1.91300097751711
304.032,1.87585532746823
304.04,1.83870967741935
304.048,1.80254154447703
304.056,1.7663734115347
304.064,1.73216031280547
304.072,1.70283479960899
304.08,1.67644183773216
304.088,1.64711632453568
304.096,1.6177908113392
304.104,1.59042033235582
304.112,1.56500488758553
304.12,1.5405669599218
304.128,1.51906158357771
304.136,1.49755620723363
304.144,1.47702834799609
304.152,1.45650048875855
304.16,1.43695014662757
304.168,1.41935483870968
304.176,1.40566959921799
304.184,1.3919843597263
304.192,1.37341153470186
304.2,1.35386119257087
304.208,1.33431085043988
304.216,1.31573802541544
304.224,1.29814271749756
304.232,1.28250244379277
304.24,1.26979472140762
304.248,1.26197458455523
304.256,1.26392961876833
304.264,1.27956989247312
304.272,1.3049853372434
304.28,1.34115347018573
304.288,1.3919843597263
304.296,1.45259042033236
304.304,1.52101661779081
304.312,1.59433040078201
304.32,1.66959921798631
304.328,1.74486803519062
304.336,1.81915933528837
304.344,1.89247311827957
304.352,1.96383186705767
304.36,2.03421309872923
304.368,2.09481915933529
304.376,2.14956011730205
304.384,2.21309872922776
304.392,2.28054740957967
304.4,2.34897360703812
304.408,2.41642228739003
304.416,2.48289345063539
304.424,2.54643206256109
304.432,2.60703812316716
304.44,2.66373411534702
304.448,2.71749755620723
304.456,2.76539589442815
304.464,2.80742913000978
304.472,2.83577712609971
304.48,2.85434995112414
304.488,2.86803519061584
304.496,2.87390029325513
304.504,2.86901270772239
304.512,2.8533724340176
304.52,2.82600195503421
304.528,2.79081133919844
304.536,2.75073313782991
304.544,2.70772238514174
304.552,2.66471163245357
304.56,2.6217008797654
304.568,2.58162267839687
304.576,2.544477028348
304.584,2.50635386119257
304.592,2.46823069403715
304.6,2.42815249266862
304.608,2.386119257087
304.616,2.34115347018573
304.624,2.29521016617791
304.632,2.24828934506354
304.64,2.20039100684262
304.648,2.15347018572825
304.656,2.10654936461388
304.664,2.06060606060606
304.672,2.02150537634409
304.68,1.98435972629521
304.688,1.94428152492669
304.696,1.90224828934506
304.704,1.85826001955034
304.712,1.81622678396872
304.72,1.77712609970674
304.728,1.74095796676442
304.736,1.71163245356794
304.744,1.69012707722385
304.752,1.67741935483871
304.76,1.67741935483871
304.768,1.68621700879765
304.776,1.70283479960899
304.784,1.72727272727273
304.792,1.75855327468231
304.8,1.79081133919844
304.808,1.82306940371456
304.816,1.8533724340176
304.824,1.88074291300098
304.832,1.90420332355816
304.84,1.9247311827957
304.848,1.94330400782014
304.856,1.96089931573803
304.864,1.97653958944282
304.872,1.98729227761486
304.88,1.99511241446725
304.888,2.0
304.896,1.99902248289345
304.904,1.99120234604106
304.912,1.97653958944282
304.92,1.95796676441838
304.928,1.93841642228739
304.936,1.9188660801564
304.944,1.89931573802542
304.952,1.87976539589443
304.96,1.86217008797654
304.968,1.8475073313783
304.976,1.83675464320626
304.984,1.82600195503421
304.992,1.81622678396872
305.0,1.80645161290323
305.008,1.79472140762463
305.016,1.78005865102639
305.024,1.7644183773216
305.032,1.74877810361681
305.04,1.73313782991202
305.048,1.71554252199413
305.056,1.69599217986315
305.064,1.67546432062561
305.072,1.65689149560117
305.08,1.63929618768328
305.088,1.6177908113392
305.096,1.59335288367546
305.104,1.56598240469208
305.112,1.53763440860215
305.12,1.50928641251222
305.128,1.48093841642229
305.136,1.45454545454545
305.144,1.43010752688172
305.152,1.40664711632454
305.16,1.3841642228739
305.168,1.31378299120235
305.176,1.21896383186706
305.184,1.158357771261
305.192,1.11534701857282
305.2,1.08211143695015
305.208,1.05376344086022
305.216,1.03030303030303
305.224,1.00879765395894
305.232,0.991202346041056
305.24,0.976539589442815
305.248,0.962854349951124
305.256,0.950146627565982
305.264,0.937438905180841
305.272,0.930596285434995
305.28,0.924731182795699
305.288,0.913000977517107
305.296,0.899315738025415
305.304,0.885630498533724
305.312,0.873900293255132
305.32,0.868035190615836
305.328,0.873900293255132
305.336,0.898338220918866
305.344,0.943304007820137
305.352,1.00782013685239
305.36,1.09188660801564
305.368,1.17790811339198
305.376,1.26588465298143
305.384,1.36950146627566
305.392,1.48093841642229
305.4,1.59433040078201
305.408,1.70674486803519
305.416,1.81622678396872
305.424,1.92570869990225
305.432,2.03616813294233
305.44,2.14467253176931
305.448,2.25024437927664
305.456,2.35288367546432
305.464,2.45259042033236
305.472,2.5347018572825
305.48,2.60703812316716
305.488,2.6871945259042
305.496,2.7663734115347
305.504,2.84261974584555
305.512,2.91397849462366
305.52,2.97947214076246
305.528,3.03812316715543
305.536,3.08797653958944
305.544,3.13098729227761
305.552,3.16617790811339
305.56,3.19061583577713
305.568,3.19843597262952
305.576,3.19257086999022
305.584,3.17790811339198
305.592,3.15151515151515
305.6,3.11241446725318
305.608,3.06353861192571
305.616,3.00879765395894
305.624,2.95112414467253
305.632,2.89345063538612
305.64,2.83577712609971
305.648,2.78005865102639
305.656,2.72531769305963
305.664,2.66959921798631
305.672,2.61681329423265
305.68,2.56598240469208
305.688,2.51124144672532
305.696,2.45356793743891
305.704,2.39589442815249
305.712,2.33822091886608
305.72,2.28152492668622
305.728,2.2238514173998
305.736,2.16520039100684
305.744,2.10557184750733
305.752,2.04496578690127
305.76,1.98435972629521
305.768,1.930596285435
305.776,1.88172043010753
305.784,1.82893450635386
305.792,1.77712609970674
305.8,1.72922776148583
305.808,1.68328445747801
305.816,1.63929618768328
305.824,1.59628543499511
305.832,1.55522971652004
305.84,1.51710654936461
305.848,1.48484848484848
305.856,1.45845552297165
305.864,1.43988269794721
305.872,1.43010752688172
305.88,1.43108504398827
305.888,1.44379276637341
305.896,1.46823069403715
305.904,1.50342130987292
305.912,1.54643206256109
305.92,1.59433040078201
305.928,1.64418377321603
305.936,1.69403714565005
305.944,1.74095796676442
305.952,1.78592375366569
305.96,1.82991202346041
305.968,1.86705767350929
305.976,1.90029325513196
305.984,1.93646138807429
305.992,1.97165200391007
306.0,2.0039100684262
306.008,2.03128054740958
306.016,2.04985337243402
306.024,2.05865102639296
306.032,2.05571847507331
306.04,2.04105571847507
306.048,2.01661779081134
306.056,1.98631476050831
306.064,1.95307917888563
306.072,1.92179863147605
306.08,1.89345063538612
306.088,1.86314760508309
306.096,1.83186705767351
306.104,1.79960899315738
306.112,1.7683284457478
306.12,1.73900293255132
306.128,1.70869990224829
306.136,1.67448680351906
306.144,1.63929618768328
306.152,1.60508308895406
306.16,1.56989247311828
306.168,1.53763440860215
306.176,1.50830889540567
306.184,1.47605083088954
306.192,1.44086021505376
306.2,1.40566959921799
306.208,1.37047898338221
306.216,1.33724340175953
306.224,1.30400782013685
306.232,1.27174975562072
306.24,1.24046920821114
306.248,1.21212121212121
306.256,1.18572825024438
306.264,1.16520039100684
306.272,1.1466275659824
306.28,1.12414467253177
306.288,1.10068426197458
306.296,1.07624633431085
306.304,1.05180840664712
306.312,1.03030303030303
306.32,1.01466275659824
306.328,1.00879765395894
306.336,1.01661779081134
306.344,1.04203323558162
306.352,1.08406647116325
306.36,1.13978494623656
306.368,1.19941348973607
306.376,1.26295210166178
306.384,1.33626588465298
306.392,1.41642228739003
306.4,1.49853372434018
306.408,1.57869012707722
306.416,1.65786901270772
306.424,1.73509286412512
306.432,1.81036168132942
306.44,1.88367546432063
306.448,1.95503421309873
306.456,2.02346041055718
306.464,2.0791788856305
306.472,2.12903225806452
306.48,2.18279569892473
306.488,2.23655913978495
306.496,2.28543499511241
306.504,2.32746823069404
306.512,2.36070381231672
306.52,2.3822091886608
306.528,2.3880742913001
306.536,2.37927663734115
306.544,2.35777126099707
306.552,2.32649071358749
306.56,2.28739002932551
306.568,2.25024437927664
306.576,2.21603128054741
306.584,2.18084066471163
306.592,2.1466275659824
306.6,2.11436950146628
306.608,2.0830889540567
306.616,2.05278592375367
306.624,2.02150537634409
306.632,1.98924731182796
306.64,1.95601173020528
306.648,1.92179863147605
306.656,1.88563049853372
306.664,1.85434995112414
306.672,1.82306940371456
306.68,1.78690127077224
306.688,1.75073313782991
306.696,1.71456500488759
306.704,1.67644183773216
306.712,1.63734115347019
306.72,1.59824046920821
306.728,1.55816226783969
306.736,1.51906158357771
306.744,1.48289345063539
306.752,1.44965786901271
306.76,1.41739980449658
306.768,1.39100684261975
306.776,1.36852394916911
306.784,1.34408602150538
306.792,1.31769305962854
306.8,1.28836754643206
306.808,1.25806451612903
306.816,1.22873900293255
306.824,1.20234604105572
306.832,1.17888563049853
306.84,1.1564027370479
306.848,1.13391984359726
306.856,1.11241446725318
306.864,1.09775171065494
306.872,1.08699902248289
306.88,1.07429130009775
306.888,1.05962854349951
306.896,1.04398826979472
306.904,1.02834799608993
306.912,1.01270772238514
306.92,0.997067448680352
306.928,0.987292277614858
306.936,0.988269794721408
306.944,1.0039100684262
306.952,1.03714565004888
306.96,1.09090909090909
306.968,1.15347018572825
306.976,1.2238514173998
306.984,1.3108504398827
306.992,1.40860215053763
307.0,1.50830889540567
307.008,1.6080156402737
307.016,1.70478983382209
307.024,1.79863147605083
307.032,1.89051808406647
307.04,1.97947214076246
307.048,2.06647116324536
307.056,2.15151515151515
307.064,2.22189638318671
307.072,2.28445747800587
307.08,2.35288367546432
307.088,2.42033235581623
307.096,2.48680351906158
307.104,2.55034213098729
307.112,2.6080156402737
307.12,2.65884652981427
307.128,2.70185728250244
307.136,2.73411534701857
307.144,2.75562072336266
307.152,2.7644183773216
307.16,2.76050830889541
307.168,2.74584555229716
307.176,2.72140762463343
307.184,2.68817204301075
307.192,2.64907135874878
307.2,2.6080156402737
307.208,2.56598240469208
307.216,2.49853372434018
307.224,2.42033235581623
307.232,2.36363636363636
307.24,2.31769305962854
307.248,2.27663734115347
307.256,2.23655913978495
307.264,2.19941348973607
307.272,2.16226783968719
307.28,2.12121212121212
307.288,2.08015640273705
307.296,2.03812316715543
307.304,1.99511241446725
307.312,1.95307917888563
307.32,1.91104594330401
307.328,1.86803519061584
307.336,1.82795698924731
307.344,1.78983382209189
307.352,1.75268817204301
307.36,1.71456500488759
307.368,1.68230694037146
307.376,1.65493646138807
307.384,1.62561094819159
307.392,1.59628543499511
307.4,1.56695992179863
307.408,1.5366568914956
307.416,1.50635386119257
307.424,1.47507331378299
307.432,1.44477028347996
307.44,1.41739980449658
307.448,1.39296187683284
307.456,1.36950146627566
307.464,1.35190615835777
307.472,1.33626588465298
307.48,1.31769305962854
307.488,1.29912023460411
307.496,1.27956989247312
307.504,1.25904203323558
307.512,1.23949169110459
307.52,1.21994134897361
307.528,1.20234604105572
307.536,1.18572825024438
307.544,1.17008797653959
307.552,1.1544477028348
307.56,1.13880742913001
307.568,1.12805474095797
307.576,1.11925708699902
307.584,1.10752688172043
307.592,1.09481915933529
307.6,1.0830889540567
307.608,1.07038123167155
307.616,1.05474095796676
307.624,1.03910068426197
307.632,1.02248289345064
307.64,1.00782013685239
307.648,0.998044965786901
307.656,0.994134897360704
307.664,0.999022482893451
307.672,1.01466275659824
307.68,1.04203323558162
307.688,1.08406647116325
307.696,1.14076246334311
307.704,1.21016617790811
307.712,1.28934506353861
307.72,1.37438905180841
307.728,1.4613880742913
307.736,1.54740957966764
307.744,1.63049853372434
307.752,1.71260997067449
307.76,1.79374389051808
307.768,1.86314760508309
307.776,1.9286412512219
307.784,2.00097751710655
307.792,2.07624633431085
307.8,2.1524926686217
307.808,2.22873900293255
307.816,2.30400782013685
307.824,2.37536656891496
307.832,2.44379276637341
307.84,2.50928641251222
307.848,2.56989247311828
307.856,2.62561094819159
307.864,2.66568914956012
307.872,2.6969696969697
307.88,2.73020527859238
307.888,2.75855327468231
307.896,2.78005865102639
307.904,2.79178885630499
307.912,2.79374389051808
307.92,2.78494623655914
307.928,2.7624633431085
307.936,2.72922776148583
307.944,2.68817204301075
307.952,2.64320625610948
307.96,2.59824046920821
307.968,2.55425219941349
307.976,2.50928641251222
307.984,2.4633431085044
307.992,2.41739980449658
308.0,2.37243401759531
308.008,2.32746823069404
308.016,2.28250244379277
308.024,2.2355816226784
308.032,2.18768328445748
308.04,2.13782991202346
308.048,2.08797653958944
308.056,2.03910068426197
308.064,1.9960899315738
308.072,1.95796676441838
308.08,1.9169110459433
308.088,1.87390029325513
308.096,1.83088954056696
308.104,1.78983382209189
308.112,1.74877810361681
308.12,1.70772238514174
308.128,1.66764418377322
308.136,1.62854349951124
308.144,1.59042033235582
308.152,1.55229716520039
308.16,1.52199413489736
308.168,1.49462365591398
308.176,1.4633431085044
308.184,1.43108504398827
308.192,1.39882697947214
308.2,1.36754643206256
308.208,1.33919843597263
308.216,1.31182795698925
308.224,1.28445747800587
308.232,1.25610948191593
308.24,1.227761485826
308.248,1.19941348973607
308.256,1.17204301075269
308.264,1.1505376344086
308.272,1.13098729227761
308.28,1.10752688172043
308.288,1.08406647116325
308.296,1.05962854349951
308.304,1.03421309872923
308.312,1.01173020527859
308.32,0.993157380254154
308.328,0.982404692082111
308.336,0.982404692082111
308.344,0.994134897360704
308.352,1.01955034213099
308.36,1.05376344086022
308.368,1.09677419354839
308.376,1.1524926686217
308.384,1.21700879765396
308.392,1.28641251221896
308.4,1.35972629521017
308.408,1.43499511241447
308.416,1.51124144672532
308.424,1.58944281524927
308.432,1.66666666666667
308.44,1.74193548387097
308.448,1.81622678396872
308.456,1.89149560117302
308.464,1.95601173020528
308.472,2.01466275659824
308.48,2.0791788856305
308.488,2.14467253176931
308.496,2.20918866080156
308.504,2.27174975562072
308.512,2.33137829912023
308.52,2.38709677419355
308.528,2.43792766373412
308.536,2.48387096774194
308.544,2.52492668621701
308.552,2.56011730205279
308.56,2.58162267839687
308.568,2.59139784946237
308.576,2.59433040078201
308.584,2.58651026392962
308.592,2.56891495601173
308.6,2.5386119257087
308.608,2.49853372434018
308.616,2.45454545454545
308.624,2.40957966764418
308.632,2.36559139784946
308.64,2.32355816226784
308.648,2.28347996089932
308.656,2.24340175953079
308.664,2.20625610948192
308.672,2.17106549364614
308.68,2.13000977517107
308.688,2.08602150537634
308.696,2.04007820136852
308.704,1.99315738025415
308.712,1.94819159335288
308.72,1.90420332355816
308.728,1.86119257086999
308.736,1.81915933528837
308.744,1.77810361681329
308.752,1.73607038123167
308.76,1.6989247311828
308.768,1.66471163245357
308.776,1.62756598240469
308.784,1.58846529814272
308.792,1.54936461388074
308.8,1.51124144672532
308.808,1.47605083088954
308.816,1.44574780058651
308.824,1.42228739002933
308.832,1.40860215053763
308.84,1.40469208211144
308.848,1.41153470185728
308.856,1.42815249266862
308.864,1.44965786901271
308.872,1.47605083088954
308.88,1.50928641251222
308.888,1.54545454545455
308.896,1.58064516129032
308.904,1.613880742913
308.912,1.64516129032258
308.92,1.67644183773216
308.928,1.70674486803519
308.936,1.73411534701857
308.944,1.75953079178886
308.952,1.78103616813294
308.96,1.79569892473118
308.968,1.80449657869013
308.976,1.80742913000978
308.984,1.80156402737048
308.992,1.78885630498534
309.0,1.76930596285435
309.008,1.74584555229717
309.016,1.72140762463343
309.024,1.69794721407625
309.032,1.67350928641251
309.04,1.65004887585533
309.048,1.62854349951124
309.056,1.60703812316716
309.064,1.58944281524927
309.072,1.57380254154448
309.08,1.55620723362659
309.088,1.5366568914956
309.096,1.51612903225806
309.104,1.49364613880743
309.112,1.47018572825024
309.12,1.44770283479961
309.128,1.42619745845552
309.136,1.40469208211144
309.144,1.3841642228739
309.152,1.36363636363636
309.16,1.34701857282502
309.168,1.33333333333333
309.176,1.31573802541544
309.184,1.29814271749756
309.192,1.27956989247312
309.2,1.26001955034213
309.208,1.24046920821114
309.216,1.22091886608016
309.224,1.20332355816227
309.232,1.18572825024438
309.24,1.16813294232649
309.248,1.1505376344086
309.256,1.13294232649071
309.264,1.13196480938416
309.272,1.13880742913001
309.28,1.13489736070381
309.288,1.12707722385142
309.296,1.11730205278592
309.304,1.10654936461388
309.312,1.09579667644184
309.32,1.08406647116325
309.328,1.07038123167155
309.336,1.05474095796676
309.344,1.03910068426197
309.352,1.02346041055718
309.36,1.01368523949169
309.368,1.0058651026393
309.376,0.994134897360704
309.384,0.981427174975562
309.392,0.973607038123167
309.4,0.974584555229717
309.408,0.989247311827957
309.416,1.02052785923754
309.424,1.06744868035191
309.432,1.13098729227761
309.44,1.20918866080156
309.448,1.29912023460411
309.456,1.39687194525904
309.464,1.48680351906158
309.472,1.57184750733138
309.48,1.66666666666667
309.488,1.7663734115347
309.496,1.86803519061584
309.504,1.96774193548387
309.512,2.06647116324536
309.52,2.16422287390029
309.528,2.26197458455523
309.536,2.35777126099707
309.544,2.45161290322581
309.552,2.5405669599218
309.56,2.61094819159335
309.568,2.67155425219941
309.576,2.73900293255132
309.584,2.80547409579668
309.592,2.86901270772239
309.6,2.92570869990225
309.608,2.97360703812317
309.616,3.01270772238514
309.624,3.04203323558162
309.632,3.06060606060606
309.64,3.06647116324536
309.648,3.05962854349951
309.656,3.03910068426197
309.664,3.00879765395894
309.672,2.97067448680352
309.68,2.9266862170088
309.688,2.87781036168133
309.696,2.82991202346041
309.704,2.78201368523949
309.712,2.73509286412512
309.72,2.6891495601173
309.728,2.64418377321603
309.736,2.59824046920821
309.744,2.54936461388074
309.752,2.49853372434018
309.76,2.45063538611926
309.768,2.40371456500489
309.776,2.35288367546432
309.784,2.29912023460411
309.792,2.24535679374389
309.8,2.19257086999022
309.808,2.14076246334311
309.816,2.08993157380254
309.824,2.04105571847507
309.832,1.99315738025415
309.84,1.94623655913978
309.848,1.90029325513196
309.856,1.86217008797654
309.864,1.82991202346041
309.872,1.79569892473118
309.88,1.76050830889541
309.888,1.72629521016618
309.896,1.69012707722385
309.904,1.65493646138807
309.912,1.6197458455523
309.92,1.58553274682307
309.928,1.55131964809384
309.936,1.51906158357771
309.944,1.48778103616813
309.952,1.4574780058651
309.96,1.43304007820137
309.968,1.41153470185728
309.976,1.38709677419355
309.984,1.36363636363636
309.992,1.34213098729228
310.0,1.32062561094819
310.008,1.30009775171065
310.016,1.28152492668622
310.024,1.26392961876833
310.032,1.24828934506354
310.04,1.2316715542522
310.048,1.21505376344086
310.056,1.20332355816227
310.064,1.19354838709677
310.072,1.17888563049853
310.08,1.16129032258065
310.088,1.14467253176931
310.096,1.13000977517107
310.104,1.11632453567937
310.112,1.10557184750733
310.12,1.09872922776149
310.128,1.10166177908113
310.136,1.11730205278592
310.144,1.14760508308895
310.152,1.19354838709677
310.16,1.24633431085044
310.168,1.3088954056696
310.176,1.386119257087
310.184,1.47311827956989
310.192,1.56598240469208
310.2,1.66275659824047
310.208,1.75855327468231
310.216,1.85239491691105
310.224,1.94525904203324
310.232,2.03616813294233
310.24,2.12609970674487
310.248,2.21505376344086
310.256,2.29130009775171
310.264,2.35972629521017
310.272,2.43499511241447
310.28,2.51124144672532
310.288,2.58553274682307
310.296,2.65591397849462
310.304,2.72238514173998
310.312,2.78494623655914
310.32,2.841642228739
310.328,2.89247311827957
310.336,2.93450635386119
310.344,2.96676441837732
310.352,2.98924731182796
310.36,2.99511241446725
310.368,2.98924731182796
310.376,2.97458455522972
310.384,2.95014662756598
310.392,2.91593352883675
310.4,2.87585532746823
310.408,2.83088954056696
310.416,2.78201368523949
310.424,2.73020527859238
310.432,2.67839687194526
310.44,2.62854349951124
310.448,2.57869012707722
310.456,2.53372434017595
310.464,2.49071358748778
310.472,2.44477028347996
310.48,2.39687194525904
310.488,2.34701857282502
310.496,2.29618768328446
310.504,2.24340175953079
310.512,2.19159335288368
310.52,2.13880742913001
310.528,2.08602150537634
310.536,2.03128054740958
310.544,1.97849462365591
310.552,1.92766373411535
310.56,1.88465298142718
310.568,1.84848484848485
310.576,1.80840664711632
310.584,1.76735092864125
310.592,1.72727272727273
310.6,1.68621700879765
310.608,1.64516129032258
310.616,1.60606060606061
310.624,1.56793743890518
310.632,1.52883675464321
310.64,1.49169110459433
310.648,1.455522971652
310.656,1.42521994134897
310.664,1.39882697947214
310.672,1.36950146627566
310.68,1.34017595307918
310.688,1.31182795698925
310.696,1.28347996089932
310.704,1.25610948191593
310.712,1.23069403714565
310.72,1.20625610948192
310.728,1.18084066471163
310.736,1.1564027370479
310.744,1.13294232649071
310.752,1.10850439882698
310.76,1.09090909090909
310.768,1.07624633431085
310.776,1.05767350928641
310.784,1.04007820136852
310.792,1.02737047898338
310.8,1.02150537634409
310.808,1.02639296187683
310.816,1.04301075268817
310.824,1.07429130009775
310.832,1.12023460410557
310.84,1.17986314760508
310.848,1.25024437927664
310.856,1.31867057673509
310.864,1.38709677419355
310.872,1.46432062561095
310.88,1.544477028348
310.888,1.62463343108504
310.896,1.70381231671554
310.904,1.78103616813294
310.912,1.85728250244379
310.92,1.93352883675464
310.928,2.00977517106549
310.936,2.08504398826979
310.944,2.15738025415445
310.952,2.227761485826
310.96,2.28445747800587
310.968,2.33333333333333
310.976,2.386119257087
310.984,2.44086021505376
310.992,2.49266862170088
311.0,2.5366568914956
311.008,2.57380254154448
311.016,2.60215053763441
311.024,2.6177908113392
311.032,2.6197458455523
311.04,2.6099706744868
311.048,2.58944281524927
311.056,2.56207233626588
311.064,2.5307917888563
311.072,2.49462365591398
311.08,2.4574780058651
311.088,2.42130987292278
311.096,2.38514173998045
311.104,2.34995112414467
311.112,2.31378299120235
311.12,2.27565982404692
311.128,2.2375366568915
311.136,2.19843597262952
311.144,2.15738025415445
311.152,2.11534701857282
311.16,2.07820136852395
311.168,2.04301075268817
311.176,2.00293255131965
311.184,1.96089931573803
311.192,1.91593352883675
311.2,1.87194525904203
311.208,1.82991202346041
311.216,1.78787878787879
311.224,1.74682306940371
311.232,1.70869990224829
311.24,1.67350928641251
311.248,1.63929618768328
311.256,1.6119257086999
311.264,1.58846529814272
311.272,1.56207233626588
311.28,1.5366568914956
311.288,1.51319648093842
311.296,1.49657869012708
311.304,1.48875855327468
311.312,1.49071358748778
311.32,1.50439882697947
311.328,1.52492668621701
311.336,1.55131964809384
311.344,1.58162267839687
311.352,1.6119257086999
311.36,1.63929618768328
311.368,1.66568914956012
311.376,1.69208211143695
311.384,1.71749755620723
311.392,1.74193548387097
311.4,1.7644183773216
311.408,1.78299120234604
311.416,1.79863147605083
311.424,1.80938416422287
311.432,1.81524926686217
311.44,1.81427174975562
311.448,1.80840664711632
311.456,1.79960899315738
311.464,1.78787878787879
311.472,1.772238514174
311.48,1.75464320625611
311.488,1.73802541544477
311.496,1.72238514173998
311.504,1.70772238514174
311.512,1.6930596285435
311.52,1.67741935483871
311.528,1.65982404692082
311.536,1.64027370478983
311.544,1.6217008797654
311.552,1.60215053763441
311.56,1.58553274682307
311.568,1.56891495601173
311.576,1.54838709677419
311.584,1.52688172043011
311.592,1.50537634408602
311.6,1.48484848484848
311.608,1.46627565982405
311.616,1.44770283479961
311.624,1.43010752688172
311.632,1.41251221896383
311.64,1.39491691104594
311.648,1.37732160312805
311.656,1.36363636363636
311.664,1.35190615835777
311.672,1.33724340175953
311.68,1.32160312805474
311.688,1.3049853372434
311.696,1.28934506353861
311.704,1.27663734115347
311.712,1.26490713587488
311.72,1.25219941348974
311.728,1.23949169110459
311.736,1.227761485826
311.744,1.21505376344086
311.752,1.20527859237537
311.76,1.19843597262952
311.768,1.18768328445748
311.776,1.17497556207234
311.784,1.16226783968719
311.792,1.1505376344086
311.8,1.13978494623656
311.808,1.13000977517107
311.816,1.12023460410557
311.824,1.11143695014663
311.832,1.10263929618768
311.84,1.09384164222874
311.848,1.08699902248289
311.856,1.08504398826979
311.864,1.08797653958944
311.872,1.09579667644184
311.88,1.11436950146628
311.888,1.14760508308895
311.896,1.19550342130987
311.904,1.25904203323558
311.912,1.33724340175953
311.92,1.42521994134897
311.928,1.52199413489736
311.936,1.6217008797654
311.944,1.72238514173998
311.952,1.80938416422287
311.96,1.88856304985337
311.968,1.97556207233627
311.976,2.06549364613881
311.984,2.15738025415445
311.992,2.24926686217009
312.0,2.34115347018573
312.008,2.43304007820137
312.016,2.52394916911046
312.024,2.61290322580645
312.032,2.69794721407625
312.04,2.78103616813294
312.048,2.85923753665689
312.056,2.9208211143695
312.064,2.97067448680352
312.072,3.02346041055718
312.08,3.0752688172043
312.088,3.12218963831867
312.096,3.16324535679374
312.104,3.19648093841642
312.112,3.21896383186706
312.12,3.23069403714565
312.128,3.2316715542522
312.136,3.21994134897361
312.144,3.19452590420332
312.152,3.15933528836755
312.16,3.11925708699902
312.168,3.07429130009775
312.176,3.02737047898338
312.184,2.97947214076246
312.192,2.93352883675464
312.2,2.88856304985337
312.208,2.84652981427175
312.216,2.80547409579668
312.224,2.76344086021505
312.232,2.72043010752688
312.24,2.67644183773216
312.248,2.63147605083089
312.256,2.58846529814272
312.264,2.54545454545455
312.272,2.49951124144673
312.28,2.45161290322581
312.288,2.40371456500489
312.296,2.35777126099707
312.304,2.3147605083089
312.312,2.27370478983382
312.32,2.2336265884653
312.328,2.19550342130987
312.336,2.158357771261
312.344,2.12218963831867
312.352,2.08993157380254
312.36,2.06060606060606
312.368,2.02737047898338
312.376,1.9941348973607
312.384,1.96285434995112
312.392,1.93255131964809
312.4,1.90322580645161
312.408,1.87487781036168
312.416,1.8475073313783
312.424,1.82209188660802
312.432,1.79667644183773
312.44,1.77126099706745
312.448,1.74780058651026
312.456,1.72922776148583
312.464,1.71260997067449
312.472,1.6950146627566
312.48,1.67839687194526
312.488,1.66862170087977
312.496,1.66764418377322
312.504,1.67839687194526
312.512,1.69990224828935
312.52,1.73118279569892
312.528,1.7741935483871
312.536,1.82600195503421
312.544,1.88367546432063
312.552,1.93646138807429
312.56,1.98631476050831
312.568,2.04301075268817
312.576,2.10263929618768
312.584,2.16226783968719
312.592,2.22189638318671
312.6,2.28054740957967
312.608,2.34017595307918
312.616,2.39882697947214
312.624,2.45650048875855
312.632,2.51221896383187
312.64,2.56598240469208
312.648,2.61681329423265
312.656,2.65493646138807
312.664,2.6871945259042
312.672,2.72434017595308
312.68,2.76148582600196
312.688,2.79374389051808
312.696,2.82013685239492
312.704,2.83773216031281
312.712,2.84652981427175
312.72,2.8455522971652
312.728,2.83284457478006
312.736,2.81036168132942
312.744,2.77810361681329
312.752,2.74095796676442
312.76,2.70185728250244
312.768,2.65689149560117
312.776,2.61094819159335
312.784,2.56598240469208
312.792,2.52101661779081
312.8,2.47605083088954
312.808,2.43108504398827
312.816,2.38709677419355
312.824,2.34115347018573
312.832,2.29423264907136
312.84,2.24731182795699
312.848,2.20039100684262
312.856,2.15738025415445
312.864,2.11632453567937
312.872,2.07233626588465
312.88,2.02737047898338
312.888,1.98240469208211
312.896,1.93939393939394
312.904,1.89638318670577
312.912,1.85532746823069
312.92,1.81524926686217
312.928,1.7761485826002
312.936,1.73802541544477
312.944,1.69990224828935
312.952,1.66666666666667
312.96,1.63636363636364
312.968,1.60215053763441
312.976,1.56695992179863
312.984,1.5327468230694
312.992,1.50146627565982
313.0,1.47018572825024
313.008,1.43890518084066
313.016,1.40957966764418
313.024,1.3802541544477
313.032,1.34995112414467
313.04,1.31964809384164
313.048,1.29032258064516
313.056,1.26881720430108
313.064,1.25122189638319
313.072,1.2297165200391
313.08,1.20625610948192
313.088,1.18377321603128
313.096,1.16324535679374
313.104,1.14467253176931
313.112,1.12609970674487
313.12,1.10850439882698
313.128,1.09090909090909
313.136,1.07429130009775
313.144,1.05865102639296
313.152,1.04887585532747
313.16,1.04398826979472
313.168,1.03812316715543
313.176,1.03128054740958
313.184,1.02346041055718
313.192,1.01368523949169
313.2,1.0019550342131
313.208,0.988269794721408
313.216,0.974584555229717
313.224,0.962854349951124
313.232,0.956011730205279
313.24,0.959921798631476
313.248,0.978494623655914
313.256,1.00782013685239
313.264,1.04985337243402
313.272,1.10948191593353
313.28,1.18377321603128
313.288,1.26881720430108
313.296,1.36168132942326
313.304,1.45845552297165
313.312,1.55913978494624
313.32,1.66177908113392
313.328,1.76344086021505
313.336,1.86217008797654
313.344,1.95894428152493
313.352,2.04301075268817
313.36,2.09286412512219
313.368,2.13489736070381
313.376,2.19648093841642
313.384,2.26588465298143
313.392,2.33822091886608
313.4,2.40957966764418
313.408,2.47800586510264
313.416,2.5425219941349
313.424,2.60312805474096
313.432,2.65982404692082
313.44,2.71163245356794
313.448,2.75073313782991
313.456,2.78103616813294
313.464,2.81231671554252
313.472,2.83870967741935
313.48,2.85826001955034
313.488,2.86803519061584
313.496,2.86705767350929
313.504,2.85434995112414
313.512,2.83186705767351
313.52,2.80156402737048
313.528,2.76344086021505
313.536,2.72140762463343
313.544,2.67741935483871
313.552,2.63538611925709
313.56,2.59433040078201
313.568,2.55131964809384
313.576,2.50635386119257
313.584,2.46236559139785
313.592,2.41739980449658
313.6,2.37145650048876
313.608,2.32551319648094
313.616,2.27956989247312
313.624,2.2316715542522
313.632,2.18377321603128
313.64,2.13685239491691
313.648,2.09579667644184
313.656,2.05865102639296
313.664,2.01857282502444
313.672,1.97751710654936
313.68,1.93646138807429
313.688,1.89736070381232
313.696,1.85923753665689
313.704,1.82111436950147
313.712,1.78494623655914
313.72,1.74975562072336
313.728,1.71456500488759
313.736,1.68230694037146
313.744,1.65004887585533
313.752,1.62365591397849
313.76,1.60019550342131
313.768,1.57673509286413
313.776,1.55425219941349
313.784,1.53567937438905
313.792,1.52199413489736
313.8,1.51221896383187
313.808,1.50733137829912
313.816,1.50439882697947
313.824,1.50244379276637
313.832,1.49951124144673
313.84,1.49560117302053
313.848,1.48973607038123
313.856,1.48387096774194
313.864,1.47311827956989
313.872,1.45650048875855
313.88,1.43597262952102
313.888,1.41348973607038
313.896,1.39100684261975
313.904,1.36852394916911
313.912,1.34701857282502
313.92,1.32844574780059
313.928,1.3128054740958
313.936,1.3010752688172
313.944,1.29130009775171
313.952,1.28543499511241
313.96,1.28054740957967
313.968,1.27272727272727
313.976,1.26295210166178
313.984,1.25122189638319
313.992,1.23949169110459
314.0,1.227761485826
314.008,1.21603128054741
314.016,1.20430107526882
314.024,1.19354838709677
314.032,1.18084066471163
314.04,1.16715542521994
314.048,1.15933528836755
314.056,1.15347018572825
314.064,1.14271749755621
314.072,1.13196480938416
314.08,1.12023460410557
314.088,1.10948191593353
314.096,1.10166177908113
314.104,1.09384164222874
314.112,1.08699902248289
314.12,1.0811339198436
314.128,1.07429130009775
314.136,1.06842619745846
314.144,1.06256109481916
314.152,1.05962854349951
314.16,1.05962854349951
314.168,1.05865102639296
314.176,1.05571847507331
314.184,1.05278592375367
314.192,1.04985337243402
314.2,1.04594330400782
314.208,1.04203323558162
314.216,1.03812316715543
314.224,1.03519061583578
314.232,1.03225806451613
314.24,1.02834799608993
314.248,1.02737047898338
314.256,1.02834799608993
314.264,1.02639296187683
314.272,1.02248289345064
314.28,1.01759530791789
314.288,1.01173020527859
314.296,1.00684261974585
314.304,1.00293255131965
314.312,1.00097751710655
314.32,1.00097751710655
314.328,1.00782013685239
314.336,1.02541544477028
314.344,1.05474095796676
314.352,1.09188660801564
314.36,1.13880742913001
314.368,1.20136852394917
314.376,1.27565982404692
314.384,1.35679374389052
314.392,1.44183773216031
314.4,1.52883675464321
314.408,1.61485826001955
314.416,1.69794721407625
314.424,1.77908113391984
314.432,1.86021505376344
314.44,1.93939393939394
314.448,2.00684261974585
314.456,2.06842619745846
314.464,2.13782991202346
314.472,2.21016617790811
314.48,2.28347996089932
314.488,2.35483870967742
314.496,2.42424242424242
314.504,2.48875855327468
314.512,2.54740957966764
314.52,2.60117302052786
314.528,2.64907135874878
314.536,2.6911045943304
314.544,2.72727272727273
314.552,2.75073313782991
314.56,2.7644183773216
314.568,2.77517106549365
314.576,2.77810361681329
314.584,2.772238514174
314.592,2.75659824046921
314.6,2.73313782991202
314.608,2.70478983382209
314.616,2.67350928641251
314.624,2.64027370478983
314.632,2.60606060606061
314.64,2.57086999022483
314.648,2.53763440860215
314.656,2.50537634408602
314.664,2.47214076246334
314.672,2.43695014662757
314.68,2.39980449657869
314.688,2.36168132942327
314.696,2.32258064516129
314.704,2.28347996089932
314.712,2.24437927663734
314.72,2.20430107526882
314.728,2.16422287390029
314.736,2.12414467253177
314.744,2.08504398826979
314.752,2.05083088954057
314.76,2.01857282502444
314.768,1.98533724340176
314.776,1.95112414467253
314.784,1.9169110459433
314.792,1.88367546432063
314.8,1.85239491691105
314.808,1.82111436950147
314.816,1.79081133919844
314.824,1.7624633431085
314.832,1.73411534701857
314.84,1.70674486803519
314.848,1.6852394916911
314.856,1.66568914956012
314.864,1.64320625610948
314.872,1.6197458455523
314.88,1.59726295210166
314.888,1.57673509286413
314.896,1.55522971652004
314.904,1.53372434017595
314.912,1.51221896383187
314.92,1.49071358748778
314.928,1.4692082111437
314.936,1.44868035190616
314.944,1.42913000977517
314.952,1.41348973607038
314.96,1.40175953079179
314.968,1.3880742913001
314.976,1.37341153470186
314.984,1.35874877810362
314.992,1.34310850439883
315.0,1.32844574780059
315.008,1.3128054740958
315.016,1.29912023460411
315.024,1.28836754643206
315.032,1.28054740957967
315.04,1.27859237536657
315.048,1.28347996089932
315.056,1.29618768328446
315.064,1.31867057673509
315.072,1.35288367546432
315.08,1.39784946236559
315.088,1.45063538611926
315.096,1.51026392961877
315.104,1.57380254154448
315.112,1.64027370478983
315.12,1.70772238514174
315.128,1.7741935483871
315.136,1.841642228739
315.144,1.90909090909091
315.152,1.96774193548387
315.16,2.02150537634409
315.168,2.0791788856305
315.176,2.13880742913001
315.184,2.19941348973607
315.192,2.25904203323558
315.2,2.31671554252199
315.208,2.37145650048876
315.216,2.42228739002933
315.224,2.4692082111437
315.232,2.51221896383187
315.24,2.55034213098729
315.248,2.57771260997067
315.256,2.59530791788856
315.264,2.60899315738025
315.272,2.6158357771261
315.28,2.61485826001955
315.288,2.60606060606061
315.296,2.58748778103617
315.304,2.56109481915934
315.312,2.52981427174976
315.32,2.49560117302053
315.328,2.46236559139785
315.336,2.43010752688172
315.344,2.40078201368524
315.352,2.37243401759531
315.36,2.34213098729228
315.368,2.30987292277615
315.376,2.27663734115347
315.384,2.24242424242424
315.392,2.20625610948192
315.4,2.16813294232649
315.408,2.1466275659824
315.416,2.13294232649071
315.424,2.10654936461388
315.432,2.0733137829912
315.44,2.03812316715543
315.448,2.00684261974585
315.456,1.97751710654936
315.464,1.94525904203324
315.472,1.91202346041056
315.48,1.87683284457478
315.488,1.84066471163245
315.496,1.80449657869013
315.504,1.7702834799609
315.512,1.73900293255132
315.52,1.70869990224829
315.528,1.67937438905181
315.536,1.65102639296188
315.544,1.62756598240469
315.552,1.6080156402737
315.56,1.58455522971652
315.568,1.55718475073314
315.576,1.52981427174976
315.584,1.50537634408602
315.592,1.48191593352884
315.6,1.45845552297165
315.608,1.43597262952102
315.616,1.41446725317693
315.624,1.39296187683284
315.632,1.37145650048876
315.64,1.35092864125122
315.648,1.33626588465298
315.656,1.32355816226784
315.664,1.30987292277615
315.672,1.29423264907136
315.68,1.27956989247312
315.688,1.26686217008798
315.696,1.25806451612903
315.704,1.25904203323558
315.712,1.27077223851417
315.72,1.29521016617791
315.728,1.33333333333333
315.736,1.38514173998045
315.744,1.43792766373412
315.752,1.49462365591398
315.76,1.56207233626588
315.768,1.63440860215054
315.776,1.70772238514174
315.784,1.78103616813294
315.792,1.85434995112414
315.8,1.92766373411535
315.808,2.00097751710655
315.816,2.07429130009775
315.824,2.14760508308895
315.832,2.21994134897361
315.84,2.29227761485826
315.848,2.35386119257087
315.856,2.40762463343109
315.864,2.46627565982405
315.872,2.52688172043011
315.88,2.58748778103617
315.888,2.64516129032258
315.896,2.69794721407625
315.904,2.74682306940371
315.912,2.79081133919844
315.92,2.82600195503421
315.928,2.8533724340176
315.936,2.87194525904203
315.944,2.87781036168133
315.952,2.87194525904203
315.96,2.85728250244379
315.968,2.83284457478006
315.976,2.79960899315738
315.984,2.75953079178886
315.992,2.71652003910068
316.0,2.67350928641251
316.008,2.63049853372434
316.016,2.58748778103617
316.024,2.54643206256109
316.032,2.50439882697947
316.04,2.4613880742913
316.048,2.42130987292278
316.056,2.38318670576735
316.064,2.34115347018573
316.072,2.29716520039101
316.08,2.25317693059629
316.088,2.21016617790811
316.096,2.16813294232649
316.104,2.12609970674487
316.112,2.0830889540567
316.12,2.04007820136852
316.128,1.99706744868035
316.136,1.95503421309873
316.144,1.91984359726295
316.152,1.88758553274682
316.16,1.8514173998045
316.168,1.81524926686217
316.176,1.77908113391984
316.184,1.74486803519062
316.192,1.71554252199413
316.2,1.6930596285435
316.208,1.67839687194526
316.216,1.67350928641251
316.224,1.67839687194526
316.232,1.6911045943304
316.24,1.70967741935484
316.248,1.72922776148583
316.256,1.75073313782991
316.264,1.7741935483871
316.272,1.79667644183773
316.28,1.81720430107527
316.288,1.83577712609971
316.296,1.8514173998045
316.304,1.86510263929619
316.312,1.87585532746823
316.32,1.88367546432063
316.328,1.88563049853372
316.336,1.88172043010753
316.344,1.87390029325513
316.352,1.86314760508309
316.36,1.8455522971652
316.368,1.82502443792766
316.376,1.80351906158358
316.384,1.78201368523949
316.392,1.7624633431085
316.4,1.74486803519062
316.408,1.72825024437928
316.416,1.71163245356794
316.424,1.69403714565005
316.432,1.67448680351906
316.44,1.65200391006843
316.448,1.63245356793744
316.456,1.6158357771261
316.464,1.59628543499511
316.472,1.57478005865103
316.48,1.55229716520039
316.488,1.5307917888563
316.496,1.51026392961877
316.504,1.49071358748778
316.512,1.47116324535679
316.52,1.45161290322581
316.528,1.43206256109482
316.536,1.41348973607038
316.544,1.39980449657869
316.552,1.3880742913001
316.56,1.37438905180841
316.568,1.35972629521017
316.576,1.34408602150538
316.584,1.32844574780059
316.592,1.3147605083089
316.6,1.3010752688172
316.608,1.28836754643206
316.616,1.27663734115347
316.624,1.26392961876833
316.632,1.25219941348974
316.64,1.24144672531769
316.648,1.2336265884653
316.656,1.22873900293255
316.664,1.21994134897361
316.672,1.21114369501466
316.68,1.20332355816227
316.688,1.19550342130987
316.696,1.18670576735093
316.704,1.17790811339198
316.712,1.16813294232649
316.72,1.158357771261
316.728,1.1485826001955
316.736,1.13880742913001
316.744,1.13294232649071
316.752,1.12903225806452
316.76,1.12414467253177
316.768,1.12218963831867
316.776,1.12805474095797
316.784,1.14467253176931
316.792,1.17497556207234
316.8,1.22091886608016
316.808,1.28152492668622
316.816,1.35386119257087
316.824,1.43597262952102
316.832,1.52492668621701
316.84,1.6177908113392
316.848,1.69990224828935
316.856,1.77712609970674
316.864,1.86217008797654
316.872,1.95112414467253
316.88,2.04105571847507
316.888,2.12903225806452
316.896,2.21603128054741
316.904,2.3030303030303
316.912,2.38905180840665
316.92,2.47409579667644
316.928,2.55522971652004
316.936,2.63147605083089
316.944,2.69208211143695
316.952,2.74291300097752
316.96,2.79765395894428
316.968,2.8514173998045
316.976,2.90029325513196
316.984,2.94428152492669
316.992,2.98240469208211
317.0,3.01173020527859
317.008,3.03225806451613
317.016,3.04203323558162
317.024,3.03910068426197
317.032,3.02541544477028
317.04,3.0019550342131
317.048,2.97067448680352
317.056,2.93157380254154
317.064,2.88660801564027
317.072,2.8396871945259
317.08,2.79374389051808
317.088,2.74975562072336
317.096,2.70576735092864
317.104,2.66177908113392
317.112,2.6177908113392
317.12,2.57478005865103
317.128,2.53176930596285
317.136,2.48680351906158
317.144,2.44379276637341
317.152,2.40175953079179
317.16,2.35483870967742
317.168,2.30596285434995
317.176,2.25610948191593
317.184,2.20527859237537
317.192,2.15542521994135
317.2,2.10752688172043
317.208,2.06158357771261
317.216,2.01661779081134
317.224,1.97262952101662
317.232,1.9286412512219
317.24,1.89051808406647
317.248,1.85630498533724
317.256,1.81915933528837
317.264,1.77908113391984
317.272,1.73998044965787
317.28,1.70283479960899
317.288,1.66764418377322
317.296,1.63538611925709
317.304,1.60410557184751
317.312,1.57380254154448
317.32,1.544477028348
317.328,1.51515151515152
317.336,1.48582600195503
317.344,1.4613880742913
317.352,1.44086021505376
317.36,1.41837732160313
317.368,1.39589442815249
317.376,1.37341153470186
317.384,1.35092864125122
317.392,1.32942326490714
317.4,1.3088954056696
317.408,1.28836754643206
317.416,1.26881720430108
317.424,1.24828934506354
317.432,1.2297165200391
317.44,1.21700879765396
317.448,1.20723362658847
317.456,1.16520039100684
317.464,1.10752688172043
317.472,1.0713587487781
317.48,1.04887585532747
317.488,1.03812316715543
317.496,1.03910068426197
317.504,1.05474095796676
317.512,1.08699902248289
317.52,1.13489736070381
317.528,1.19550342130987
317.536,1.26881720430108
317.544,1.34115347018573
317.552,1.41153470185728
317.56,1.49071358748778
317.568,1.57478005865103
317.576,1.65982404692082
317.584,1.74291300097752
317.592,1.82600195503421
317.6,1.90811339198436
317.608,1.99022482893451
317.616,2.07233626588465
317.624,2.15347018572825
317.632,2.2316715542522
317.64,2.29618768328446
317.648,2.35386119257087
317.656,2.41739980449658
317.664,2.47996089931574
317.672,2.53958944281525
317.68,2.59628543499511
317.688,2.64711632453568
317.696,2.69208211143695
317.704,2.72922776148583
317.712,2.75855327468231
317.72,2.77810361681329
317.728,2.78592375366569
317.736,2.78201368523949
317.744,2.7663734115347
317.752,2.74193548387097
317.76,2.70869990224829
317.768,2.66959921798631
317.776,2.62561094819159
317.784,2.57966764418377
317.792,2.5347018572825
317.8,2.48875855327468
317.808,2.44477028347996
317.816,2.40175953079179
317.824,2.35874877810362
317.832,2.31378299120235
317.84,2.27077223851417
317.848,2.2297165200391
317.856,2.18475073313783
317.864,2.13685239491691
317.872,2.09090909090909
317.88,2.04594330400782
317.888,2.0
317.896,1.95405669599218
317.904,1.90909090909091
317.912,1.86510263929619
317.92,1.82306940371456
317.928,1.78201368523949
317.936,1.74193548387097
317.944,1.70869990224829
317.952,1.67937438905181
317.96,1.64613880742913
317.968,1.61290322580645
317.976,1.58064516129032
317.984,1.55034213098729
317.992,1.52003910068426
318.0,1.48973607038123
318.008,1.4594330400782
318.016,1.43010752688172
318.024,1.40273704789834
318.032,1.37536656891496
318.04,1.35288367546432
318.048,1.33333333333333
318.056,1.3128054740958
318.064,1.29325513196481
318.072,1.27272727272727
318.08,1.25317693059629
318.088,1.2336265884653
318.096,1.21309872922776
318.104,1.19257086999022
318.112,1.17106549364614
318.12,1.14956011730205
318.128,1.12903225806452
318.136,1.11143695014663
318.144,1.10263929618768
318.152,1.10166177908113
318.16,1.10948191593353
318.168,1.12805474095797
318.176,1.1603128054741
318.184,1.20625610948192
318.192,1.26588465298143
318.2,1.33528836754643
318.208,1.41055718475073
318.216,1.48875855327468
318.224,1.56891495601173
318.232,1.65004887585533
318.24,1.72043010752688
318.248,1.78494623655914
318.256,1.85532746823069
318.264,1.9266862170088
318.272,1.9980449657869
318.28,2.069403714565
318.288,2.13978494623656
318.296,2.20918866080156
318.304,2.27468230694037
318.312,2.33724340175953
318.32,2.39589442815249
318.328,2.44965786901271
318.336,2.50048875855327
318.344,2.5386119257087
318.352,2.56891495601173
318.36,2.60019550342131
318.368,2.62756598240469
318.376,2.64418377321603
318.384,2.65004887585533
318.392,2.64418377321603
318.4,2.62756598240469
318.408,2.60019550342131
318.416,2.56500488758553
318.424,2.52297165200391
318.432,2.47702834799609
318.44,2.43401759530792
318.448,2.39296187683284
318.456,2.35092864125122
318.464,2.30791788856305
318.472,2.26490713587488
318.48,2.22189638318671
318.488,2.17790811339198
318.496,2.13391984359726
318.504,2.08993157380254
318.512,2.04692082111437
318.52,2.0039100684262
318.528,1.95894428152493
318.536,1.91495601173021
318.544,1.87585532746823
318.552,1.8396871945259
318.56,1.79960899315738
318.568,1.75855327468231
318.576,1.71945259042033
318.584,1.67937438905181
318.592,1.64027370478983
318.6,1.60312805474096
318.608,1.56793743890518
318.616,1.5327468230694
318.624,1.49755620723363
318.632,1.4633431085044
318.64,1.43597262952102
318.648,1.41348973607038
318.656,1.38905180840665
318.664,1.36461388074291
318.672,1.34506353861193
318.68,1.33235581622678
318.688,1.32453567937439
318.696,1.32355816226784
318.704,1.32844574780059
318.712,1.33822091886608
318.72,1.34995112414467
318.728,1.36363636363636
318.736,1.37732160312805
318.744,1.3900293255132
318.752,1.40078201368524
318.76,1.40762463343109
318.768,1.40957966764418
318.776,1.40566959921799
318.784,1.39491691104594
318.792,1.37927663734115
318.8,1.35874877810362
318.808,1.33528836754643
318.816,1.31378299120235
318.824,1.29423264907136
318.832,1.27663734115347
318.84,1.26295210166178
318.848,1.25415444770283
318.856,1.24437927663734
318.864,1.23460410557185
318.872,1.22482893450635
318.88,1.21505376344086
318.888,1.20430107526882
318.896,1.19159335288368
318.904,1.17888563049853
318.912,1.16520039100684
318.92,1.15151515151515
318.928,1.13880742913001
318.936,1.12903225806452
318.944,1.12218963831867
318.952,1.11143695014663
318.96,1.10068426197458
318.968,1.08993157380254
318.976,1.0791788856305
318.984,1.06744868035191
318.992,1.05669599217986
319.0,1.04594330400782
319.008,1.03616813294233
319.016,1.02541544477028
319.024,1.01564027370479
319.032,1.00684261974585
319.04,1.0039100684262
319.048,1.0019550342131
319.056,0.999022482893451
319.064,0.994134897360704
319.072,0.989247311827957
319.08,0.98533724340176
319.088,0.981427174975562
319.096,0.975562072336266
319.104,0.96969696969697
319.112,0.963831867057674
319.12,0.958944281524927
319.128,0.95405669599218
319.136,0.95405669599218
319.144,0.955034213098729
319.152,0.95405669599218
319.16,0.95405669599218
319.168,0.95405669599218
319.176,0.95405669599218
319.184,0.95405669599218
319.192,0.95405669599218
319.2,0.95405669599218
319.208,0.955034213098729
319.216,0.962854349951124
319.224,0.979472140762463
319.232,1.01075268817204
319.24,1.05180840664712
319.248,1.10361681329423
319.256,1.17302052785924
319.264,1.25806451612903
319.272,1.35288367546432
319.28,1.45161290322581
319.288,1.55229716520039
319.296,1.65004887585533
319.304,1.74486803519062
319.312,1.83870967741935
319.32,1.93255131964809
319.328,2.02346041055718
319.336,2.10068426197458
319.344,2.17008797653959
319.352,2.24828934506354
319.36,2.33040078201369
319.368,2.41251221896383
319.376,2.49169110459433
319.384,2.56695992179863
319.392,2.63831867057673
319.4,2.70576735092864
319.408,2.76735092864125
319.416,2.82306940371457
319.424,2.86999022482893
319.432,2.90909090909091
319.44,2.93255131964809
319.448,2.94134897360704
319.456,2.94232649071359
319.464,2.93450635386119
319.472,2.9169110459433
319.48,2.89051808406647
319.488,2.85826001955034
319.496,2.82111436950147
319.504,2.79178885630499
319.512,2.76735092864125
319.52,2.73509286412512
319.528,2.6989247311828
319.536,2.66275659824047
319.544,2.62561094819159
319.552,2.58651026392962
319.56,2.54643206256109
319.568,2.50635386119257
319.576,2.46432062561095
319.584,2.42033235581623
319.592,2.37732160312805
319.6,2.33431085043988
319.608,2.29325513196481
319.616,2.25122189638319
319.624,2.20821114369501
319.632,2.16520039100684
319.64,2.12707722385142
319.648,2.09188660801564
319.656,2.05474095796676
319.664,2.01564027370479
319.672,1.97751710654936
319.68,1.93841642228739
319.688,1.90029325513196
319.696,1.86314760508309
319.704,1.82600195503421
319.712,1.79081133919844
319.72,1.75659824046921
319.728,1.72238514173998
319.736,1.6950146627566
319.744,1.66959921798631
319.752,1.63929618768328
319.76,1.60899315738025
319.768,1.58064516129032
319.776,1.55425219941349
319.784,1.5307917888563
319.792,1.51319648093842
319.8,1.50635386119257
319.808,1.51319648093842
319.816,1.53176930596285
319.824,1.56304985337243
319.832,1.60606060606061
319.84,1.65102639296188
319.848,1.6989247311828
319.856,1.75757575757576
319.864,1.82306940371456
319.872,1.88954056695992
319.88,1.95796676441838
319.888,2.02834799608993
319.896,2.09872922776149
319.904,2.17008797653959
319.912,2.24144672531769
319.92,2.31182795698925
319.928,2.38123167155425
319.936,2.43890518084066
319.944,2.48875855327468
319.952,2.54545454545455
319.96,2.60410557184751
319.968,2.66177908113392
319.976,2.71652003910068
319.984,2.76539589442815
319.992,2.80742913000978
320.0,2.841642228739
320.008,2.86705767350929
320.016,2.88269794721408
320.024,2.88758553274682
320.032,2.88172043010753
320.04,2.86510263929619
320.048,2.84066471163245
320.056,2.81133919843597
320.064,2.77810361681329
320.072,2.74389051808407
320.08,2.71065493646139
320.088,2.67741935483871
320.096,2.64418377321603
320.104,2.61290322580645
320.112,2.58162267839687
320.12,2.54936461388074
320.128,2.51515151515152
320.136,2.48093841642229
320.144,2.44672531769306
320.152,2.41055718475073
320.16,2.37341153470186
320.168,2.33724340175953
320.176,2.30205278592375
320.184,2.26686217008798
320.192,2.2316715542522
320.2,2.19648093841642
320.208,2.16226783968719
320.216,2.12805474095797
320.224,2.09481915933529
320.232,2.06451612903226
320.24,2.03812316715543
320.248,2.01466275659824
320.256,1.99022482893451
320.264,1.96480938416422
320.272,1.94037145650049
320.28,1.91593352883675
320.288,1.89247311827957
320.296,1.86901270772239
320.304,1.8475073313783
320.312,1.82697947214076
320.32,1.80645161290323
320.328,1.78787878787879
320.336,1.772238514174
320.344,1.75855327468231
320.352,1.74389051808407
320.36,1.72825024437928
320.368,1.71163245356794
320.376,1.6950146627566
320.384,1.67937438905181
320.392,1.66471163245357
320.4,1.65102639296188
320.408,1.63636363636364
320.416,1.62072336265885
320.424,1.60410557184751
320.432,1.58748778103617
320.44,1.57478005865103
320.448,1.56304985337243
320.456,1.55034213098729
320.464,1.5386119257087
320.472,1.52688172043011
320.48,1.51612903225806
320.488,1.50537634408602
320.496,1.49462365591398
320.504,1.48484848484848
320.512,1.47409579667644
320.52,1.46432062561095
320.528,1.45454545454545
320.536,1.44965786901271
320.544,1.44574780058651
320.552,1.44281524926686
320.56,1.44379276637341
320.568,1.45161290322581
320.576,1.47018572825024
320.584,1.50439882697947
320.592,1.55425219941349
320.6,1.62072336265885
320.608,1.69990224828935
320.616,1.78983382209189
320.624,1.88856304985337
320.632,1.99120234604106
320.64,2.0811339198436
320.648,2.16422287390029
320.656,2.25610948191593
320.664,2.35190615835777
320.672,2.44770283479961
320.68,2.54349951124145
320.688,2.63734115347019
320.696,2.72922776148583
320.704,2.81720430107527
320.712,2.90224828934506
320.72,2.98631476050831
320.728,3.06842619745846
320.736,3.13294232649071
320.744,3.18768328445748
320.752,3.24926686217009
320.76,3.30987292277615
320.768,3.36656891495601
320.776,3.41642228739003
320.784,3.4594330400782
320.792,3.49364613880743
320.8,3.51710654936461
320.808,3.52883675464321
320.816,3.52883675464321
320.824,3.51710654936461
320.832,3.49169110459433
320.84,3.45650048875855
320.848,3.41446725317693
320.856,3.36461388074291
320.864,3.30791788856305
320.872,3.24633431085044
320.88,3.18084066471163
320.888,3.11436950146628
320.896,3.04887585532747
320.904,2.98533724340176
320.912,2.92179863147605
320.92,2.85826001955034
320.928,2.79472140762463
320.936,2.73607038123167
320.944,2.67839687194526
320.952,2.61681329423265
320.96,2.55327468230694
320.968,2.48778103616813
320.976,2.42228739002933
320.984,2.35874877810362
320.992,2.29716520039101
321.0,2.23655913978495
321.008,2.17595307917889
321.016,2.11534701857282
321.024,2.05571847507331
321.032,2.00488758553275
321.04,1.95894428152493
321.048,1.91104594330401
321.056,1.86412512218964
321.064,1.81622678396872
321.072,1.76735092864125
321.08,1.72043010752688
321.088,1.67644183773216
321.096,1.63440860215054
321.104,1.59628543499511
321.112,1.56402737047898
321.12,1.53763440860215
321.128,1.51808406647116
321.136,1.50537634408602
321.144,1.49755620723363
321.152,1.49071358748778
321.16,1.48484848484848
321.168,1.47800586510264
321.176,1.4692082111437
321.184,1.4594330400782
321.192,1.44672531769306
321.2,1.43108504398827
321.208,1.41153470185728
321.216,1.3880742913001
321.224,1.36363636363636
321.232,1.34310850439883
321.24,1.32551319648094
321.248,1.3049853372434
321.256,1.28250244379277
321.264,1.26197458455523
321.272,1.24535679374389
321.28,1.2297165200391
321.288,1.21603128054741
321.296,1.20136852394917
321.304,1.18572825024438
321.312,1.16911045943304
321.32,1.1524926686217
321.328,1.13587487781036
321.336,1.12414467253177
321.344,1.11534701857282
321.352,1.10263929618768
321.36,1.08699902248289
321.368,1.0713587487781
321.376,1.05571847507331
321.384,1.04203323558162
321.392,1.02834799608993
321.4,1.01466275659824
321.408,1.0
321.416,0.983382209188661
321.424,0.965786901270772
321.432,0.95405669599218
321.44,0.946236559139785
321.448,0.937438905180841
321.456,0.927663734115347
321.464,0.917888563049853
321.472,0.90811339198436
321.48,0.898338220918866
321.488,0.888563049853372
321.496,0.878787878787879
321.504,0.869012707722385
321.512,0.858260019550342
321.52,0.848484848484849
321.528,0.838709677419355
321.536,0.834799608993157
321.544,0.833822091886608
321.552,0.873900293255132
321.56,0.934506353861193
321.568,0.961876832844575
321.576,0.973607038123167
321.584,0.976539589442815
321.592,0.975562072336266
321.6,0.972629521016618
321.608,0.96871945259042
321.616,0.964809384164223
321.624,0.959921798631476
321.632,0.958944281524927
321.64,0.959921798631476
321.648,0.959921798631476
321.656,0.961876832844575
321.664,0.970674486803519
321.672,0.990224828934506
321.68,1.02150537634409
321.688,1.06647116324536
321.696,1.12316715542522
321.704,1.18866080156403
321.712,1.25904203323558
321.72,1.33137829912023
321.728,1.40273704789834
321.736,1.46432062561095
321.744,1.51906158357771
321.752,1.57771260997067
321.76,1.63636363636364
321.768,1.69403714565005
321.776,1.75171065493646
321.784,1.80840664711632
321.792,1.86314760508309
321.8,1.91593352883675
321.808,1.96774193548387
321.816,2.01661779081134
321.824,2.06158357771261
321.832,2.09775171065494
321.84,2.12805474095797
321.848,2.15933528836755
321.856,2.18768328445748
321.864,2.21114369501466
321.872,2.2297165200391
321.88,2.24340175953079
321.888,2.25024437927664
321.896,2.24828934506354
321.904,2.23851417399804
321.912,2.21994134897361
321.92,2.19354838709677
321.928,2.16324535679374
321.936,2.13196480938416
321.944,2.10166177908113
321.952,2.07038123167155
321.96,2.04105571847507
321.968,2.01173020527859
321.976,1.98142717497556
321.984,1.95112414467253
321.992,1.92179863147605
322.0,1.89149560117302
322.008,1.86021505376344
322.016,1.82795698924731
322.024,1.79667644183773
322.032,1.76930596285435
322.04,1.74389051808407
322.048,1.71652003910068
322.056,1.6871945259042
322.064,1.65786901270772
322.072,1.62854349951124
322.08,1.59921798631476
322.088,1.56989247311828
322.096,1.5425219941349
322.104,1.51515151515152
322.112,1.48778103616813
322.12,1.46236559139785
322.128,1.43792766373412
322.136,1.41837732160313
322.144,1.40175953079179
322.152,1.3841642228739
322.16,1.36656891495601
322.168,1.34897360703812
322.176,1.33235581622678
322.184,1.31671554252199
322.192,1.3010752688172
322.2,1.28641251221896
322.208,1.27174975562072
322.216,1.25708699902248
322.224,1.24242424242424
322.232,1.23264907135875
322.24,1.2258064516129
322.248,1.21603128054741
322.256,1.20527859237537
322.264,1.19452590420332
322.272,1.18279569892473
322.28,1.17204301075269
322.288,1.16129032258065
322.296,1.1524926686217
322.304,1.14369501466276
322.312,1.13587487781036
322.32,1.12805474095797
322.328,1.11925708699902
322.336,1.11339198435973
322.344,1.10948191593353
322.352,1.10263929618768
322.36,1.09579667644184
322.368,1.08993157380254
322.376,1.08504398826979
322.384,1.0830889540567
322.392,1.08406647116325
322.4,1.09188660801564
322.408,1.10948191593353
322.416,1.13685239491691
322.424,1.17595307917889
322.432,1.21798631476051
322.44,1.26392961876833
322.448,1.31964809384164
322.456,1.3782991202346
322.464,1.43792766373412
322.472,1.49657869012708
322.48,1.55229716520039
322.488,1.60606060606061
322.496,1.65786901270772
322.504,1.70772238514174
322.512,1.75562072336266
322.52,1.80254154447703
322.528,1.84261974584555
322.536,1.87781036168133
322.544,1.91593352883675
322.552,1.95503421309873
322.56,1.99217986314761
322.568,2.02639296187683
322.576,2.05571847507331
322.584,2.0791788856305
322.592,2.09677419354839
322.6,2.10752688172043
322.608,2.11045943304008
322.616,2.10557184750733
322.624,2.09481915933529
322.632,2.08015640273705
322.64,2.06451612903226
322.648,2.04496578690127
322.656,2.02346041055718
322.664,2.0019550342131
322.672,1.98044965786901
322.68,1.95894428152493
322.688,1.93646138807429
322.696,1.91397849462366
322.704,1.88954056695992
322.712,1.86412512218964
322.72,1.83773216031281
322.728,1.81427174975562
322.736,1.79276637341153
322.744,1.76930596285435
322.752,1.74486803519062
322.76,1.72140762463343
322.768,1.6969696969697
322.776,1.67253176930596
322.784,1.64907135874878
322.792,1.62561094819159
322.8,1.60410557184751
322.808,1.58357771260997
322.816,1.56402737047898
322.824,1.54545454545455
322.832,1.52981427174976
322.84,1.51710654936461
322.848,1.50244379276637
322.856,1.48680351906158
322.864,1.47214076246334
322.872,1.4574780058651
322.88,1.44379276637341
322.888,1.43010752688172
322.896,1.41544477028348
322.904,1.40175953079179
322.912,1.38905180840665
322.92,1.37634408602151
322.928,1.36754643206256
322.936,1.35972629521017
322.944,1.34897360703812
322.952,1.33822091886608
322.96,1.32746823069404
322.968,1.31671554252199
322.976,1.30596285434995
322.984,1.29618768328446
322.992,1.28641251221896
323.0,1.27663734115347
323.008,1.26686217008798
323.016,1.25708699902248
323.024,1.24731182795699
323.032,1.24144672531769
323.04,1.23851417399804
323.048,1.23655913978495
323.056,1.24144672531769
323.064,1.25415444770283
323.072,1.27761485826002
323.08,1.31182795698925
323.088,1.35581622678397
323.096,1.40762463343109
323.104,1.4652981427175
323.112,1.52492668621701
323.12,1.58553274682307
323.128,1.63929618768328
323.136,1.68817204301075
323.144,1.74095796676442
323.152,1.79569892473118
323.16,1.8514173998045
323.168,1.90811339198436
323.176,1.96383186705767
323.184,2.01857282502444
323.192,2.07233626588465
323.2,2.12512218963832
323.208,2.17497556207234
323.216,2.22189638318671
323.224,2.26588465298143
323.232,2.3010752688172
323.24,2.33040078201369
323.248,2.36070381231672
323.256,2.38905180840665
323.264,2.41251221896383
323.272,2.43108504398827
323.28,2.44281524926686
323.288,2.44574780058651
323.296,2.44086021505376
323.304,2.42815249266862
323.312,2.40957966764418
323.32,2.3880742913001
323.328,2.36559139784946
323.336,2.34310850439883
323.344,2.31964809384164
323.352,2.29716520039101
323.36,2.27370478983382
323.368,2.24926686217009
323.376,2.2238514173998
323.384,2.19745845552297
323.392,2.17008797653959
323.4,2.14076246334311
323.408,2.11143695014663
323.416,2.08211143695015
323.424,2.05180840664712
323.432,2.02541544477028
323.44,2.0
323.448,1.97262952101662
323.456,1.94525904203324
323.464,1.91788856304985
323.472,1.89149560117302
323.48,1.86412512218964
323.488,1.83870967741935
323.496,1.81231671554252
323.504,1.78690127077224
323.512,1.76148582600196
323.52,1.73607038123167
323.528,1.71554252199413
323.536,1.6969696969697
323.544,1.67741935483871
323.552,1.65884652981427
323.56,1.64222873900293
323.568,1.62952101661779
323.576,1.62365591397849
323.584,1.62267839687195
323.592,1.62756598240469
323.6,1.70674486803519
323.608,1.82600195503421
323.616,1.89540566959922
323.624,1.93841642228739
323.632,1.96676441837732
323.64,1.98533724340176
323.648,2.00097751710655
323.656,2.01270772238514
323.664,2.02052785923754
323.672,2.02248289345064
323.68,2.01759530791789
323.688,2.00684261974585
323.696,1.99022482893451
323.704,1.96676441837732
323.712,1.93743890518084
323.72,1.90615835777126
323.728,1.87976539589443
323.736,1.85630498533724
323.744,1.83088954056696
323.752,1.80547409579668
323.76,1.78201368523949
323.768,1.75855327468231
323.776,1.73313782991202
323.784,1.70674486803519
323.792,1.68035190615836
323.8,1.65395894428153
323.808,1.62756598240469
323.816,1.60215053763441
323.824,1.57771260997067
323.832,1.55913978494624
323.84,1.54349951124145
323.848,1.52590420332356
323.856,1.50830889540567
323.864,1.49266862170088
323.872,1.47800586510264
323.88,1.46432062561095
323.888,1.45161290322581
323.896,1.43988269794721
323.904,1.43010752688172
323.912,1.42228739002933
323.92,1.41348973607038
323.928,1.40762463343109
323.936,1.40469208211144
323.944,1.39882697947214
323.952,1.39100684261975
323.96,1.3822091886608
323.968,1.37243401759531
323.976,1.36265884652981
323.984,1.35288367546432
323.992,1.34310850439883
324.0,1.33333333333333
324.008,1.32355816226784
324.016,1.31378299120235
324.024,1.30400782013685
324.032,1.29912023460411
324.04,1.29716520039101
324.048,1.29130009775171
324.056,1.28543499511241
324.064,1.27859237536657
324.072,1.27272727272727
324.08,1.26588465298143
324.088,1.25904203323558
324.096,1.25317693059629
324.104,1.24633431085044
324.112,1.24144672531769
324.12,1.24144672531769
324.128,1.24926686217009
324.136,1.26588465298143
324.144,1.29227761485826
324.152,1.33333333333333
324.16,1.3900293255132
324.168,1.4613880742913
324.176,1.544477028348
324.184,1.63636363636364
324.192,1.73216031280547
324.2,1.83088954056696
324.208,1.9286412512219
324.216,2.02541544477028
324.224,2.12023460410557
324.232,2.20039100684262
324.24,2.27272727272727
324.248,2.35386119257087
324.256,2.43988269794721
324.264,2.52688172043011
324.272,2.6119257086999
324.28,2.6950146627566
324.288,2.7741935483871
324.296,2.84848484848485
324.304,2.91984359726295
324.312,2.98631476050831
324.32,3.04789833822092
324.328,3.09286412512219
324.336,3.12707722385142
324.344,3.16226783968719
324.352,3.19159335288368
324.36,3.21407624633431
324.368,3.22678396871945
324.376,3.227761485826
324.384,3.21603128054741
324.392,3.19354838709677
324.4,3.16226783968719
324.408,3.12414467253177
324.416,3.08211143695015
324.424,3.04007820136852
324.432,3.0
324.44,2.95894428152493
324.448,2.91788856304985
324.456,2.87585532746823
324.464,2.83284457478006
324.472,2.78983382209189
324.48,2.74584555229716
324.488,2.70087976539589
324.496,2.65591397849462
324.504,2.61094819159335
324.512,2.56402737047898
324.52,2.51808406647116
324.528,2.47605083088954
324.536,2.43695014662757
324.544,2.39589442815249
324.552,2.35386119257087
324.56,2.3128054740958
324.568,2.27272727272727
324.576,2.23460410557185
324.584,2.19843597262952
324.592,2.16422287390029
324.6,2.13098729227761
324.608,2.10068426197458
324.616,2.07233626588465
324.624,2.04887585532747
324.632,2.02639296187683
324.64,2.00293255131965
324.648,1.97751710654936
324.656,1.95112414467253
324.664,1.92375366568915
324.672,1.89736070381232
324.68,1.87096774193548
324.688,1.84457478005865
324.696,1.81720430107527
324.704,1.79081133919844
324.712,1.7644183773216
324.72,1.73802541544477
324.728,1.71652003910068
324.736,1.6989247311828
324.744,1.67937438905181
324.752,1.65982404692082
324.76,1.63929618768328
324.768,1.61876832844575
324.776,1.59824046920821
324.784,1.57869012707722
324.792,1.55913978494624
324.8,1.5386119257087
324.808,1.51710654936461
324.816,1.49560117302053
324.824,1.47996089931574
324.832,1.47018572825024
324.84,1.46041055718475
324.848,1.455522971652
324.856,1.46041055718475
324.864,1.47702834799609
324.872,1.50830889540567
324.88,1.55229716520039
324.888,1.6080156402737
324.896,1.67350928641251
324.904,1.74584555229717
324.912,1.82111436950147
324.92,1.89540566959922
324.928,1.95992179863148
324.936,2.01955034213099
324.944,2.08504398826979
324.952,2.15542521994135
324.96,2.2258064516129
324.968,2.29423264907136
324.976,2.36168132942327
324.984,2.42717497556207
324.992,2.49169110459433
325.0,2.55425219941349
325.008,2.61290322580645
325.016,2.66764418377322
325.024,2.71065493646139
325.032,2.74682306940371
325.04,2.78690127077224
325.048,2.82502443792766
325.056,2.85826001955034
325.064,2.88367546432063
325.072,2.89931573802542
325.08,2.90420332355816
325.088,2.89736070381232
325.096,2.87878787878788
325.104,2.85043988269795
325.112,2.81427174975562
325.12,2.7741935483871
325.128,2.73509286412512
325.136,2.6989247311828
325.144,2.66275659824047
325.152,2.62952101661779
325.16,2.60117302052786
325.168,2.57478005865103
325.176,2.54838709677419
325.184,2.52101661779081
325.192,2.49462365591398
325.2,2.4672531769306
325.208,2.43890518084066
325.216,2.41055718475073
325.224,2.38318670576735
325.232,2.35777126099707
325.24,2.32942326490714
325.248,2.29912023460411
325.256,2.26686217008798
325.264,2.23460410557185
325.272,2.20234604105572
325.28,2.16911045943304
325.288,2.13587487781036
325.296,2.10361681329423
325.304,2.07038123167155
325.312,2.03714565004888
325.32,2.0058651026393
325.328,1.97947214076246
325.336,1.95601173020528
325.344,1.92961876832845
325.352,1.90224828934506
325.36,1.87390029325513
325.368,1.84457478005865
325.376,1.81427174975562
325.384,1.78396871945259
325.392,1.75464320625611
325.4,1.72531769305963
325.408,1.6950146627566
325.416,1.66373411534702
325.424,1.63831867057674
325.432,1.61681329423265
325.44,1.59237536656891
325.448,1.56695992179863
325.456,1.5425219941349
325.464,1.51710654936461
325.472,1.49071358748778
325.48,1.46627565982405
325.488,1.44379276637341
325.496,1.42326490713587
325.504,1.40762463343109
325.512,1.40175953079179
325.52,1.40664711632454
325.528,1.42228739002933
325.536,1.44965786901271
325.544,1.48973607038123
325.552,1.5405669599218
325.56,1.60117302052786
325.568,1.66666666666667
325.576,1.73411534701857
325.584,1.80254154447703
325.592,1.86999022482893
325.6,1.93646138807429
325.608,2.00097751710655
325.616,2.06451612903226
325.624,2.11925708699902
325.632,2.17008797653959
325.64,2.227761485826
325.648,2.227761485826
325.656,2.19648093841642
325.664,2.20625610948192
325.672,2.23655913978495
325.68,2.27468230694037
325.688,2.3147605083089
325.696,2.35386119257087
325.704,2.3900293255132
325.712,2.42033235581623
325.72,2.44281524926686
325.728,2.455522971652
325.736,2.45845552297165
325.744,2.45454545454545
325.752,2.44281524926686
325.76,2.42228739002933
325.768,2.39296187683284
325.776,2.35679374389052
325.784,2.31769305962854
325.792,2.27663734115347
325.8,2.23460410557185
325.808,2.19257086999022
325.816,2.15151515151515
325.824,2.11339198435973
325.832,2.07820136852395
325.84,2.04105571847507
325.848,2.0019550342131
325.856,1.96089931573803
325.864,1.9188660801564
325.872,1.87878787878788
325.88,1.84066471163245
325.888,1.80351906158358
325.896,1.76735092864125
325.904,1.73118279569892
325.912,1.69599217986315
325.92,1.66177908113392
325.928,1.63245356793744
325.936,1.60703812316716
325.944,1.57869012707722
325.952,1.54936461388074
325.96,1.52003910068426
325.968,1.49071358748778
325.976,1.46236559139785
325.984,1.43499511241447
325.992,1.40762463343109
326.0,1.38123167155425
326.008,1.35679374389052
326.016,1.33822091886608
326.024,1.32844574780059
326.032,1.32551319648094
326.04,1.32649071358749
326.048,1.33431085043988
326.056,1.34799608993157
326.064,1.36559139784946
326.072,1.386119257087
326.08,1.40860215053763
326.088,1.43108504398827
326.096,1.45063538611926
326.104,1.46823069403715
326.112,1.48289345063539
326.12,1.49364613880743
326.128,1.50048875855327
326.136,1.50342130987292
326.144,1.50048875855327
326.152,1.49266862170088
326.16,1.47996089931574
326.168,1.4652981427175
326.176,1.44965786901271
326.184,1.43499511241447
326.192,1.42130987292278
326.2,1.40860215053763
326.208,1.39784946236559
326.216,1.38905180840665
326.224,1.3841642228739
326.232,1.38123167155425
326.24,1.37634408602151
326.248,1.36950146627566
326.256,1.36168132942326
326.264,1.35288367546432
326.272,1.34506353861193
326.28,1.33626588465298
326.288,1.32649071358749
326.296,1.31671554252199
326.304,1.3069403714565
326.312,1.29618768328446
326.32,1.28836754643206
326.328,1.28347996089932
326.336,1.27565982404692
326.344,1.26686217008798
326.352,1.25708699902248
326.36,1.24828934506354
326.368,1.24046920821114
326.376,1.2336265884653
326.384,1.227761485826
326.392,1.22189638318671
326.4,1.21603128054741
326.408,1.21016617790811
326.416,1.20332355816227
326.424,1.20039100684262
326.432,1.19843597262952
326.44,1.19452590420332
326.448,1.18866080156403
326.456,1.18084066471163
326.464,1.17204301075269
326.472,1.16129032258065
326.48,1.15151515151515
326.488,1.14369501466276
326.496,1.13880742913001
326.504,1.13391984359726
326.512,1.13000977517107
326.52,1.13000977517107
326.528,1.13294232649071
326.536,1.13294232649071
326.544,1.13098729227761
326.552,1.12707722385142
326.56,1.12121212121212
326.568,1.11534701857282
326.576,1.11241446725318
326.584,1.11632453567937
326.592,1.13098729227761
326.6,1.15933528836755
326.608,1.20332355816227
326.616,1.26392961876833
326.624,1.32746823069404
326.632,1.39393939393939
326.64,1.47311827956989
326.648,1.55620723362659
326.656,1.65982404692082
326.664,1.75171065493646
326.672,1.81818181818182
326.68,1.89149560117302
326.688,1.96578690127077
326.696,2.03910068426197
326.704,2.11241446725318
326.712,2.18279569892473
326.72,2.24046920821114
326.728,2.29130009775171
326.736,2.34604105571848
326.744,2.40175953079179
326.752,2.4574780058651
326.76,2.51124144672532
326.768,2.56011730205279
326.776,2.60410557184751
326.784,2.64320625610948
326.792,2.67741935483871
326.8,2.70478983382209
326.808,2.72238514173998
326.816,2.73020527859238
326.824,2.72727272727273
326.832,2.71358748778104
326.84,2.69208211143695
326.848,2.66177908113392
326.856,2.62463343108504
326.864,2.58357771260997
326.872,2.5425219941349
326.88,2.50146627565982
326.888,2.4613880742913
326.896,2.42130987292278
326.904,2.3822091886608
326.912,2.34408602150538
326.92,2.30987292277615
326.928,2.27761485826002
326.936,2.24242424242424
326.944,2.20430107526882
326.952,2.16422287390029
326.96,2.12121212121212
326.968,2.0752688172043
326.976,2.02932551319648
326.984,1.98435972629521
326.992,1.94134897360704
327.0,1.90127077223851
327.008,1.86217008797654
327.016,1.82306940371456
327.024,1.78983382209189
327.032,1.76050830889541
327.04,1.72727272727273
327.048,1.69403714565005
327.056,1.66080156402737
327.064,1.62756598240469
327.072,1.59433040078201
327.08,1.56207233626588
327.088,1.53176930596285
327.096,1.50146627565982
327.104,1.47214076246334
327.112,1.44379276637341
327.12,1.42033235581623
327.128,1.40078201368524
327.136,1.37732160312805
327.144,1.35483870967742
327.152,1.33528836754643
327.16,1.32258064516129
327.168,1.31867057673509
327.176,1.32649071358749
327.184,1.34506353861193
327.192,1.37536656891496
327.2,1.41642228739003
327.208,1.4633431085044
327.216,1.51515151515152
327.224,1.56207233626588
327.232,1.60606060606061
327.24,1.65395894428153
327.248,1.70087976539589
327.256,1.74682306940371
327.264,1.79276637341153
327.272,1.83675464320626
327.28,1.87781036168133
327.288,1.91788856304985
327.296,1.95601173020528
327.304,1.99120234604106
327.312,2.02443792766373
327.32,2.04985337243402
327.328,2.069403714565
327.336,2.08699902248289
327.344,2.10068426197458
327.352,2.10752688172043
327.36,2.10654936461388
327.368,2.09677419354839
327.376,2.08015640273705
327.384,2.05962854349951
327.392,2.03030303030303
327.4,2.0019550342131
327.408,1.98240469208211
327.416,1.96089931573803
327.424,1.94134897360704
327.432,1.9227761485826
327.44,1.90029325513196
327.448,1.87683284457478
327.456,1.8514173998045
327.464,1.82600195503421
327.472,1.79863147605083
327.48,1.76930596285435
327.488,1.73900293255132
327.496,1.70674486803519
327.504,1.67350928641251
327.512,1.64125122189638
327.52,1.6158357771261
327.528,1.59237536656891
327.536,1.56695992179863
327.544,1.54154447702835
327.552,1.51515151515152
327.56,1.48875855327468
327.568,1.4613880742913
327.576,1.43401759530792
327.584,1.40860215053763
327.592,1.3841642228739
327.6,1.36070381231672
327.608,1.33724340175953
327.616,1.31378299120235
327.624,1.29521016617791
327.632,1.27956989247312
327.64,1.26099706744868
327.648,1.24340175953079
327.656,1.22678396871945
327.664,1.20918866080156
327.672,1.19159335288368
327.68,1.17204301075269
327.688,1.15542521994135
327.696,1.11632453567937
327.704,1.06353861192571
327.712,1.02932551319648
327.72,1.01075268817204
327.728,1.0
327.736,0.989247311827957
327.744,0.977517106549365
327.752,0.965786901270772
327.76,0.95405669599218
327.768,0.941348973607038
327.776,0.930596285434995
327.784,0.921798631476051
327.792,0.914956011730205
327.8,0.90713587487781
327.808,0.899315738025415
327.816,0.891495601173021
327.824,0.888563049853372
327.832,0.887585532746823
327.84,0.884652981427175
327.848,0.879765395894428
327.856,0.873900293255132
327.864,0.867057673509286
327.872,0.859237536656892
327.88,0.851417399804497
327.888,0.842619745845552
327.896,0.832844574780059
327.904,0.825024437927664
327.912,0.823069403714565
327.92,0.832844574780059
327.928,0.858260019550342
327.936,0.901270772238514
327.944,0.963831867057674
327.952,1.04594330400782
327.96,1.1466275659824
327.968,1.26099706744868
327.976,1.3841642228739
327.984,1.50830889540567
327.992,1.63245356793744
328.0,1.75464320625611
328.008,1.87487781036168
328.016,1.97947214076246
328.024,2.0752688172043
328.032,2.18181818181818
328.04,2.29521016617791
328.048,2.40860215053763
328.056,2.52199413489736
328.064,2.63343108504399
328.072,2.74291300097752
328.08,2.84848484848485
328.088,2.95112414467253
328.096,3.04692082111437
328.104,3.13685239491691
328.112,3.21994134897361
328.12,3.28152492668622
328.128,3.32844574780059
328.136,3.3782991202346
328.144,3.42619745845552
328.152,3.4672531769306
328.16,3.49853372434018
328.168,3.51515151515152
328.176,3.51515151515152
328.184,3.49951124144673
328.192,3.4672531769306
328.2,3.42130987292278
328.208,3.36559139784946
328.216,3.30791788856305
328.224,3.25024437927664
328.232,3.19159335288368
328.24,3.13196480938416
328.248,3.0713587487781
328.256,3.01075268817204
328.264,2.94916911045943
328.272,2.88563049853372
328.28,2.82013685239492
328.288,2.75366568914956
328.296,2.68621700879765
328.304,2.6177908113392
328.312,2.54936461388074
328.32,2.48778103616813
328.328,2.43108504398827
328.336,2.37145650048876
328.344,2.3108504398827
328.352,2.25122189638319
328.36,2.19159335288368
328.368,2.13391984359726
328.376,2.08015640273705
328.384,2.02932551319648
328.392,1.97849462365591
328.4,1.930596285435
328.408,1.88563049853372
328.416,1.8475073313783
328.424,1.81427174975562
328.432,1.78299120234604
328.44,1.75757575757576
328.448,1.74095796676442
328.456,1.73607038123167
328.464,1.74486803519062
328.472,1.7644183773216
328.48,1.78983382209189
328.488,1.81915933528837
328.496,1.8514173998045
328.504,1.88269794721408
328.512,1.91104594330401
328.52,1.93352883675464
328.528,1.95210166177908
328.536,1.97262952101662
328.544,1.99315738025415
328.552,2.01173020527859
328.56,2.02541544477028
328.568,2.03225806451613
328.576,2.03225806451613
328.584,2.02541544477028
328.592,2.00977517106549
328.6,1.98631476050831
328.608,1.95796676441838
328.616,1.930596285435
328.624,1.90518084066471
328.632,1.87683284457478
328.64,1.8494623655914
328.648,1.82404692082111
328.656,1.80058651026393
328.664,1.77810361681329
328.672,1.75366568914956
328.68,1.72727272727273
328.688,1.69990224828935
328.696,1.67350928641251
328.704,1.63929618768328
328.712,1.60703812316716
328.72,1.58748778103617
328.728,1.56793743890518
328.736,1.544477028348
328.744,1.51808406647116
328.752,1.49071358748778
328.76,1.46236559139785
328.768,1.43401759530792
328.776,1.40566959921799
328.784,1.37732160312805
328.792,1.34995112414467
328.8,1.32355816226784
328.808,1.29814271749756
328.816,1.27956989247312
328.824,1.26392961876833
328.832,1.24535679374389
328.84,1.2238514173998
328.848,1.20136852394917
328.856,1.17986314760508
328.864,1.15933528836755
328.872,1.13978494623656
328.88,1.12218963831867
328.888,1.10557184750733
328.896,1.08895405669599
328.904,1.0713587487781
328.912,1.05474095796676
328.92,1.04398826979472
328.928,1.03519061583578
328.936,1.02248289345064
328.944,1.00782013685239
328.952,0.991202346041056
328.96,0.972629521016618
328.968,0.955034213098729
328.976,0.940371456500489
328.984,0.929618768328446
328.992,0.928641251221896
329.0,0.940371456500489
329.008,0.96871945259042
329.016,1.01075268817204
329.024,1.06549364613881
329.032,1.14076246334311
329.04,1.2336265884653
329.048,1.33919843597263
329.056,1.47996089931574
329.064,1.6099706744868
329.072,1.70283479960899
329.08,1.80351906158358
329.088,1.90713587487781
329.096,2.01173020527859
329.104,2.11730205278592
329.112,2.22287390029325
329.12,2.31182795698925
329.128,2.39100684261975
329.136,2.47898338220919
329.144,2.56891495601173
329.152,2.65591397849462
329.16,2.73998044965787
329.168,2.82111436950147
329.176,2.89833822091887
329.184,2.96871945259042
329.192,3.04301075268817
329.2,3.10459433040078
329.208,3.14271749755621
329.216,3.16813294232649
329.224,3.18279569892473
329.232,3.19452590420332
329.24,3.19648093841642
329.248,3.18475073313783
329.256,3.1603128054741
329.264,3.12316715542522
329.272,3.0752688172043
329.28,3.02052785923754
329.288,2.96480938416422
329.296,2.90811339198436
329.304,2.8533724340176
329.312,2.79960899315738
329.32,2.74877810361681
329.328,2.69794721407625
329.336,2.64418377321603
329.344,2.59042033235582
329.352,2.53567937438905
329.36,2.47898338220919
329.368,2.42130987292278
329.376,2.36265884652981
329.384,2.3030303030303
329.392,2.24437927663734
329.4,2.18670576735093
329.408,2.12903225806452
329.416,2.0791788856305
329.424,2.03421309872923
329.432,1.98631476050831
329.44,1.93646138807429
329.448,1.88758553274682
329.456,1.84066471163245
329.464,1.79472140762463
329.472,1.74975562072336
329.48,1.70674486803519
329.488,1.66471163245357
329.496,1.62365591397849
329.504,1.58357771260997
329.512,1.54545454545455
329.52,1.51515151515152
329.528,1.48778103616813
329.536,1.45650048875855
329.544,1.42521994134897
329.552,1.3919843597263
329.56,1.35874877810362
329.568,1.32453567937439
329.576,1.29032258064516
329.584,1.25708699902248
329.592,1.2258064516129
329.6,1.19941348973607
329.608,1.18084066471163
329.616,1.17497556207234
329.624,1.18181818181818
329.632,1.20136852394917
329.64,1.23655913978495
329.648,1.28641251221896
329.656,1.34799608993157
329.664,1.42033235581623
329.672,1.49853372434018
329.68,1.57966764418377
329.688,1.68132942326491
329.696,1.79178885630499
329.704,1.86608015640274
329.712,1.92179863147605
329.72,1.9960899315738
329.728,2.0772238514174
329.736,2.13489736070381
329.744,2.13294232649071
329.752,2.12512218963832
329.76,2.14467253176931
329.768,2.16617790811339
329.776,2.19745845552297
329.784,2.23655913978495
329.792,2.27565982404692
329.8,2.3030303030303
329.808,2.31867057673509
329.816,2.32355816226784
329.824,2.32160312805474
329.832,2.31182795698925
329.84,2.30205278592375
329.848,2.28152492668622
329.856,2.24633431085044
329.864,2.21016617790811
329.872,2.17399804496579
329.88,2.13880742913001
329.888,2.10654936461388
329.896,2.08406647116325
329.904,2.06158357771261
329.912,2.03225806451613
329.92,2.0058651026393
329.928,1.97849462365591
329.936,1.95014662756598
329.944,1.92179863147605
329.952,1.89149560117302
329.96,1.86021505376344
329.968,1.82795698924731
329.976,1.79569892473118
329.984,1.76344086021505
329.992,1.73020527859238
330.0,1.6989247311828
330.008,1.67253176930596
330.016,1.64907135874878
330.024,1.62463343108504
330.032,1.59824046920821
330.04,1.57184750733138
330.048,1.54643206256109
330.056,1.52199413489736
330.064,1.49755620723363
330.072,1.47214076246334
330.08,1.44770283479961
330.088,1.42424242424242
330.096,1.40078201368524
330.104,1.38123167155425
330.112,1.36461388074291
330.12,1.34604105571847
330.128,1.32746823069404
330.136,1.30987292277615
330.144,1.29227761485826
330.152,1.27565982404692
330.16,1.25904203323558
330.168,1.24437927663734
330.176,1.2297165200391
330.184,1.21603128054741
330.192,1.20332355816227
330.2,1.19061583577713
330.208,1.18181818181818
330.216,1.17595307917889
330.224,1.16715542521994
330.232,1.158357771261
330.24,1.14956011730205
330.248,1.14076246334311
330.256,1.13196480938416
330.264,1.12316715542522
330.272,1.11436950146628
330.28,1.10557184750733
330.288,1.09677419354839
330.296,1.08699902248289
330.304,1.0811339198436
330.312,1.0772238514174
330.32,1.07038123167155
330.328,1.06256109481916
330.336,1.05571847507331
330.344,1.04985337243402
330.352,1.04692082111437
330.36,1.05083088954057
330.368,1.06647116324536
330.376,1.09579667644184
330.384,1.14076246334311
330.392,1.19941348973607
330.4,1.26881720430108
330.408,1.33626588465298
330.416,1.40469208211144
330.424,1.48191593352884
330.432,1.56402737047898
330.44,1.64711632453568
330.448,1.72922776148583
330.456,1.81133919843597
330.464,1.89247311827957
330.472,1.97262952101662
330.48,2.05083088954057
330.488,2.12805474095797
330.496,2.20234604105572
330.504,2.26392961876833
330.512,2.31867057673509
330.52,2.37732160312805
330.528,2.43695014662757
330.536,2.49560117302053
330.544,2.55034213098729
330.552,2.60019550342131
330.56,2.64418377321603
330.568,2.68132942326491
330.576,2.70967741935484
330.584,2.73020527859238
330.592,2.74193548387097
330.6,2.74389051808407
330.608,2.73411534701857
330.616,2.71652003910068
330.624,2.6911045943304
330.632,2.65786901270772
330.64,2.61876832844575
330.648,2.57771260997067
330.656,2.5366568914956
330.664,2.49657869012708
330.672,2.45650048875855
330.68,2.41544477028348
330.688,2.37438905180841
330.696,2.33333333333333
330.704,2.29521016617791
330.712,2.25708699902248
330.72,2.21700879765396
330.728,2.17497556207234
330.736,2.13098729227761
330.744,2.08602150537634
330.752,2.04301075268817
330.76,2.0
330.768,1.95796676441838
330.776,1.9169110459433
330.784,1.87781036168133
330.792,1.8396871945259
330.8,1.80254154447703
330.808,1.77126099706745
330.816,1.74291300097752
330.824,1.71260997067449
330.832,1.68132942326491
330.84,1.65200391006843
330.848,1.62463343108504
330.856,1.59824046920821
330.864,1.57086999022483
330.872,1.54349951124145
330.88,1.51710654936461
330.888,1.49071358748778
330.896,1.46432062561095
330.904,1.44379276637341
330.912,1.42619745845552
330.92,1.40566959921799
330.928,1.38318670576735
330.936,1.36070381231672
330.944,1.33919843597263
330.952,1.31867057673509
330.96,1.29814271749756
330.968,1.27859237536657
330.976,1.25806451612903
330.984,1.2355816226784
330.992,1.21309872922776
331.0,1.19061583577713
331.008,1.17399804496579
331.016,1.1603128054741
331.024,1.14467253176931
331.032,1.13000977517107
331.04,1.11730205278592
331.048,1.10459433040078
331.056,1.09188660801564
331.064,1.0791788856305
331.072,1.06842619745846
331.08,1.05669599217986
331.088,1.04496578690127
331.096,1.03421309872923
331.104,1.02834799608993
331.112,1.02346041055718
331.12,1.01564027370479
331.128,1.00782013685239
331.136,0.998044965786901
331.144,0.988269794721408
331.152,0.980449657869013
331.16,0.974584555229717
331.168,0.96871945259042
331.176,0.962854349951124
331.184,0.958944281524927
331.192,0.955034213098729
331.2,0.952101661779081
331.208,0.953079178885631
331.216,0.955034213098729
331.224,0.955034213098729
331.232,0.953079178885631
331.24,0.951124144672532
331.248,0.949169110459433
331.256,0.947214076246334
331.264,0.945259042033236
331.272,0.943304007820137
331.28,0.942326490713588
331.288,0.942326490713588
331.296,0.944281524926686
331.304,0.949169110459433
331.312,0.956011730205279
331.32,0.960899315738025
331.328,0.965786901270772
331.336,0.970674486803519
331.344,0.974584555229717
331.352,0.977517106549365
331.36,0.980449657869013
331.368,0.983382209188661
331.376,0.986314760508309
331.384,0.989247311827957
331.392,0.992179863147605
331.4,0.993157380254154
331.408,0.997067448680352
331.416,1.0
331.424,0.999022482893451
331.432,0.996089931573803
331.44,0.994134897360704
331.448,0.995112414467253
331.456,1.0039100684262
331.464,1.02346041055718
331.472,1.05669599217986
331.48,1.10361681329423
331.488,1.16520039100684
331.496,1.2375366568915
331.504,1.30791788856305
331.512,1.3802541544477
331.52,1.4613880742913
331.528,1.54545454545455
331.536,1.62952101661779
331.544,1.71065493646139
331.552,1.78787878787879
331.56,1.86217008797654
331.568,1.93450635386119
331.576,2.0039100684262
331.584,2.0713587487781
331.592,2.13685239491691
331.6,2.19257086999022
331.608,2.24046920821114
331.616,2.29325513196481
331.624,2.34799608993157
331.632,2.40175953079179
331.64,2.45356793743891
331.648,2.50146627565982
331.656,2.544477028348
331.664,2.58162267839687
331.672,2.61094819159335
331.68,2.63245356793744
331.688,2.64418377321603
331.696,2.64613880742913
331.704,2.63831867057673
331.712,2.62365591397849
331.72,2.60606060606061
331.728,2.58455522971652
331.736,2.56109481915934
331.744,2.5366568914956
331.752,2.51026392961877
331.76,2.48289345063539
331.768,2.45650048875855
331.776,2.42815249266862
331.784,2.44965786901271
331.792,2.49560117302053
331.8,2.50146627565982
331.808,2.48778103616813
331.816,2.46236559139785
331.824,2.42913000977517
331.832,2.3919843597263
331.84,2.35386119257087
331.848,2.31573802541544
331.856,2.27761485826002
331.864,2.24046920821114
331.872,2.20332355816227
331.88,2.16520039100684
331.888,2.12609970674487
331.896,2.08797653958944
331.904,2.05474095796676
331.912,2.02541544477028
331.92,1.99511241446725
331.928,1.96480938416422
331.936,1.93255131964809
331.944,1.90029325513196
331.952,1.86901270772239
331.96,1.83870967741935
331.968,1.80938416422287
331.976,1.78103616813294
331.984,1.75366568914956
331.992,1.72629521016618
332.0,1.70381231671554
332.008,1.68328445747801
332.016,1.66275659824047
332.024,1.64613880742913
332.032,1.63538611925709
332.04,1.63538611925709
332.048,1.64711632453568
332.056,1.67057673509286
332.064,1.70674486803519
332.072,1.75268817204301
332.08,1.80645161290323
332.088,1.86412512218964
332.096,1.9247311827957
332.104,1.97751710654936
332.112,2.02639296187683
332.12,2.07820136852395
332.128,2.13098729227761
332.136,2.18377321603128
332.144,2.23655913978495
332.152,2.28934506353861
332.16,2.34115347018573
332.168,2.3900293255132
332.176,2.43792766373412
332.184,2.48484848484848
332.192,2.52981427174976
332.2,2.56304985337243
332.208,2.59042033235582
332.216,2.6197458455523
332.224,2.64516129032258
332.232,2.66471163245357
332.24,2.67546432062561
332.248,2.67644183773216
332.256,2.66666666666667
332.264,2.64809384164223
332.272,2.6217008797654
332.28,2.58944281524927
332.288,2.55425219941349
332.296,2.51710654936461
332.304,2.48289345063539
332.312,2.45063538611926
332.32,2.41739980449658
332.328,2.3841642228739
332.336,2.35190615835777
332.344,2.31769305962854
332.352,2.28054740957967
332.36,2.24144672531769
332.368,2.20234604105572
332.376,2.16324535679374
332.384,2.12316715542522
332.392,2.0830889540567
332.4,2.04887585532747
332.408,2.01661779081134
332.416,1.98240469208211
332.424,1.94721407624633
332.432,1.91300097751711
332.44,1.87878787878788
332.448,1.8455522971652
332.456,1.81329423264907
332.464,1.78201368523949
332.472,1.75268817204301
332.48,1.72434017595308
332.488,1.6969696969697
332.496,1.66862170087977
332.504,1.64613880742913
332.512,1.62756598240469
332.52,1.60606060606061
332.528,1.58357771260997
332.536,1.56207233626588
332.544,1.54154447702835
332.552,1.52101661779081
332.56,1.50146627565982
332.568,1.48093841642229
332.576,1.46041055718475
332.584,1.44183773216031
332.592,1.42424242424242
332.6,1.41153470185728
332.608,1.40078201368524
332.616,1.3880742913001
332.624,1.37341153470186
332.632,1.35874877810362
332.64,1.34506353861193
332.648,1.33137829912023
332.656,1.31769305962854
332.664,1.30400782013685
332.672,1.28934506353861
332.68,1.27468230694037
332.688,1.26099706744868
332.696,1.24926686217009
332.704,1.24242424242424
332.712,1.23851417399804
332.72,1.2316715542522
332.728,1.22287390029326
332.736,1.21407624633431
332.744,1.20332355816227
332.752,1.18963831867058
332.76,1.17399804496579
332.768,1.15933528836755
332.776,1.1466275659824
332.784,1.14076246334311
332.792,1.14467253176931
332.8,1.158357771261
332.808,1.18572825024438
332.816,1.23069403714565
332.824,1.29325513196481
332.832,1.36950146627566
332.84,1.4574780058651
332.848,1.55229716520039
332.856,1.65102639296188
332.864,1.74975562072336
332.872,1.84848484848485
332.88,1.94623655913978
332.888,2.04398826979472
332.896,2.13978494623656
332.904,2.22189638318671
332.912,2.29716520039101
332.92,2.3822091886608
332.928,2.47214076246334
332.936,2.56402737047898
332.944,2.65493646138807
332.952,2.74291300097752
332.96,2.82697947214076
332.968,2.90713587487781
332.976,2.98338220918866
332.984,3.05474095796676
332.992,3.12023460410557
333.0,3.16813294232649
333.008,3.20430107526882
333.016,3.24242424242424
333.024,3.27663734115347
333.032,3.3049853372434
333.04,3.32355816226784
333.048,3.33137829912023
333.056,3.32746823069404
333.064,3.31182795698925
333.072,3.28543499511241
333.08,3.24926686217009
333.088,3.20527859237537
333.096,3.1564027370479
333.104,3.10654936461388
333.112,3.05669599217986
333.12,3.00488758553275
333.128,2.95112414467253
333.136,2.89540566959922
333.144,2.84066471163245
333.152,2.78592375366569
333.16,2.73118279569892
333.168,2.67644183773216
333.176,2.6217008797654
333.184,2.56695992179863
333.192,2.51026392961877
333.2,2.4594330400782
333.208,2.41251221896383
333.216,2.36265884652981
333.224,2.3128054740958
333.232,2.26295210166178
333.24,2.21407624633431
333.248,2.16715542521994
333.256,2.12121212121212
333.264,2.07624633431085
333.272,2.03225806451613
333.28,1.98924731182796
333.288,1.94819159335288
333.296,1.90909090909091
333.304,1.87683284457478
333.312,1.8494623655914
333.32,1.82306940371456
333.328,1.79960899315738
333.336,1.78103616813294
333.344,1.76735092864125
333.352,1.75953079178886
333.36,1.75659824046921
333.368,1.75659824046921
333.376,1.75855327468231
333.384,1.76050830889541
333.392,1.76344086021505
333.4,1.7663734115347
333.408,1.76930596285435
333.416,1.7683284457478
333.424,1.76344086021505
333.432,1.75268817204301
333.44,1.73607038123167
333.448,1.71260997067449
333.456,1.68621700879765
333.464,1.65786901270772
333.472,1.62952101661779
333.48,1.60215053763441
333.488,1.57771260997067
333.496,1.56207233626588
333.504,1.55034213098729
333.512,1.5386119257087
333.52,1.52590420332356
333.528,1.51319648093842
333.536,1.50048875855327
333.544,1.48582600195503
333.552,1.4692082111437
333.56,1.45259042033236
333.568,1.43597262952102
333.576,1.42033235581623
333.584,1.40371456500489
333.592,1.38709677419355
333.6,1.37341153470186
333.608,1.36363636363636
333.616,1.35190615835777
333.624,1.33919843597263
333.632,1.32453567937439
333.64,1.30987292277615
333.648,1.29423264907136
333.656,1.27761485826002
333.664,1.26295210166178
333.672,1.24926686217009
333.68,1.23655913978495
333.688,1.2258064516129
333.696,1.21896383186706
333.704,1.21505376344086
333.712,1.20821114369501
333.72,1.20039100684262
333.728,1.19061583577713
333.736,1.17986314760508
333.744,1.17008797653959
333.752,1.1603128054741
333.76,1.1505376344086
333.768,1.14271749755621
333.776,1.13489736070381
333.784,1.12805474095797
333.792,1.12121212121212
333.8,1.11925708699902
333.808,1.11827956989247
333.816,1.11534701857282
333.824,1.11143695014663
333.832,1.08015640273705
333.84,1.03616813294233
333.848,1.01075268817204
333.856,0.994134897360704
333.864,0.982404692082111
333.872,0.975562072336266
333.88,0.978494623655914
333.888,0.994134897360704
333.896,1.01955034213099
333.904,1.05571847507331
333.912,1.10850439882698
333.92,1.17497556207234
333.928,1.25317693059629
333.936,1.33919843597263
333.944,1.42913000977517
333.952,1.52003910068426
333.96,1.60899315738025
333.968,1.69599217986315
333.976,1.78103616813294
333.984,1.86314760508309
333.992,1.94428152492669
334.0,2.01270772238514
334.008,2.0752688172043
334.016,2.1466275659824
334.024,2.21994134897361
334.032,2.29227761485826
334.04,2.36363636363636
334.048,2.43304007820137
334.056,2.49951124144673
334.064,2.56109481915934
334.072,2.61876832844575
334.08,2.67057673509286
334.088,2.71652003910068
334.096,2.74682306940371
334.104,2.7663734115347
334.112,2.78494623655914
334.12,2.79569892473118
334.128,2.79863147605083
334.136,2.79178885630499
334.144,2.77517106549365
334.152,2.75073313782991
334.16,2.72043010752688
334.168,2.6852394916911
334.176,2.64809384164223
334.184,2.60899315738025
334.192,2.57086999022483
334.2,2.53372434017595
334.208,2.49853372434018
334.216,2.46236559139785
334.224,2.42424242424242
334.232,2.38318670576735
334.24,2.34213098729228
334.248,2.30009775171066
334.256,2.25708699902248
334.264,2.21407624633431
334.272,2.17106549364614
334.28,2.12903225806452
334.288,2.08895405669599
334.296,2.05278592375367
334.304,2.01857282502444
334.312,1.98142717497556
334.32,1.94428152492669
334.328,1.90713587487781
334.336,1.87096774193548
334.344,1.83479960899316
334.352,1.79960899315738
334.36,1.76539589442815
334.368,1.73118279569892
334.376,1.6969696969697
334.384,1.66471163245357
334.392,1.63245356793744
334.4,1.60508308895406
334.408,1.58162267839687
334.416,1.55718475073314
334.424,1.5327468230694
334.432,1.50733137829912
334.44,1.48191593352884
334.448,1.4574780058651
334.456,1.43401759530792
334.464,1.40957966764418
334.472,1.386119257087
334.48,1.36265884652981
334.488,1.34115347018573
334.496,1.32453567937439
334.504,1.31182795698925
334.512,1.29814271749756
334.52,1.28347996089932
334.528,1.26783968719453
334.536,1.25122189638319
334.544,1.23460410557185
334.552,1.21896383186706
334.56,1.20332355816227
334.568,1.18670576735093
334.576,1.17204301075269
334.584,1.15933528836755
334.592,1.1505376344086
334.6,1.1485826001955
334.608,1.1564027370479
334.616,1.17497556207234
334.624,1.20527859237537
334.632,1.24828934506354
334.64,1.3030303030303
334.648,1.36852394916911
334.656,1.44281524926686
334.664,1.52003910068426
334.672,1.59628543499511
334.68,1.66959921798631
334.688,1.74193548387097
334.696,1.80351906158358
334.704,1.85826001955034
334.712,1.9208211143695
334.72,1.98826979472141
334.728,2.05669599217986
334.736,2.12512218963832
334.744,2.19354838709677
334.752,2.25904203323558
334.76,2.32160312805474
334.768,2.3802541544477
334.776,2.43401759530792
334.784,2.48289345063539
334.792,2.52785923753666
334.8,2.55913978494624
334.808,2.58064516129032
334.816,2.60312805474096
334.824,2.6217008797654
334.832,2.63245356793744
334.84,2.63343108504399
334.848,2.62365591397849
334.856,2.60508308895406
334.864,2.57869012707722
334.872,2.54349951124145
334.88,2.50244379276637
334.888,2.46041055718475
334.896,2.42033235581623
334.904,2.38318670576735
334.912,2.34506353861193
334.92,2.3049853372434
334.928,2.26588465298143
334.936,2.22678396871945
334.944,2.18670576735093
334.952,2.14565004887586
334.96,2.10459433040078
334.968,2.06451612903226
334.976,2.02248289345064
334.984,1.98142717497556
334.992,1.94134897360704
335.0,1.90615835777126
335.008,1.87390029325513
335.016,1.83870967741935
335.024,1.80254154447703
335.032,1.76735092864125
335.04,1.73216031280547
335.048,1.69794721407625
335.056,1.66471163245357
335.064,1.63049853372434
335.072,1.59824046920821
335.08,1.56793743890518
335.088,1.53958944281525
335.096,1.51710654936461
335.104,1.49755620723363
335.112,1.47409579667644
335.12,1.44965786901271
335.128,1.42521994134897
335.136,1.39980449657869
335.144,1.37536656891496
335.152,1.35092864125122
335.16,1.32746823069404
335.168,1.3069403714565
335.176,1.28836754643206
335.184,1.27077223851417
335.192,1.25122189638319
335.2,1.2355816226784
335.208,1.22287390029326
335.216,1.20821114369501
335.224,1.19159335288368
335.232,1.17497556207234
335.24,1.15738025415445
335.248,1.14173998044966
335.256,1.13098729227761
335.264,1.12512218963832
335.272,1.12707722385142
335.28,1.13880742913001
335.288,1.16226783968719
335.296,1.19257086999022
335.304,1.2297165200391
335.312,1.27761485826002
335.32,1.33333333333333
335.328,1.39393939393939
335.336,1.45650048875855
335.344,1.51906158357771
335.352,1.58064516129032
335.36,1.64320625610948
335.368,1.70576735092864
335.376,1.76735092864125
335.384,1.82697947214076
335.392,1.87683284457478
335.4,1.92179863147605
335.408,1.97165200391007
335.416,2.02346041055718
335.424,2.0752688172043
335.432,2.12609970674487
335.44,2.17497556207234
335.448,2.21994134897361
335.456,2.26099706744868
335.464,2.29618768328446
335.472,2.32551319648094
335.48,2.34799608993157
335.488,2.36265884652981
335.496,2.36559139784946
335.504,2.35972629521017
335.512,2.34799608993157
335.52,2.32844574780059
335.528,2.3030303030303
335.536,2.27174975562072
335.544,2.23851417399804
335.552,2.20430107526882
335.56,2.17106549364614
335.568,2.13978494623656
335.576,2.10850439882698
335.584,2.0772238514174
335.592,2.04789833822092
335.6,2.01955034213099
335.608,1.98826979472141
335.616,1.95503421309873
335.624,1.9188660801564
335.632,1.88172043010753
335.64,1.8435972629521
335.648,1.80645161290323
335.656,1.772238514174
335.664,1.73900293255132
335.672,1.70576735092864
335.68,1.67350928641251
335.688,1.64125122189638
335.696,1.61290322580645
335.704,1.58748778103617
335.712,1.55913978494624
335.72,1.5307917888563
335.728,1.50244379276637
335.736,1.47507331378299
335.744,1.44868035190616
335.752,1.42326490713587
335.76,1.39882697947214
335.768,1.37634408602151
335.776,1.35777126099707
335.784,1.34604105571847
335.792,1.34115347018573
335.8,1.34213098729228
335.808,1.34799608993157
335.816,1.35972629521017
335.824,1.37438905180841
335.832,1.3919843597263
335.84,1.40957966764418
335.848,1.42619745845552
335.856,1.44086021505376
335.864,1.45356793743891
335.872,1.46236559139785
335.88,1.48680351906158
335.888,1.51515151515152
335.896,1.52688172043011
335.904,1.52883675464321
335.912,1.52101661779081
335.92,1.50733137829912
335.928,1.48973607038123
335.936,1.47214076246334
335.944,1.45650048875855
335.952,1.44183773216031
335.96,1.42815249266862
335.968,1.41544477028348
335.976,1.40371456500489
335.984,1.39393939393939
335.992,1.38709677419355
336.0,1.3802541544477
336.008,1.37145650048876
336.016,1.36070381231672
336.024,1.34799608993157
336.032,1.33333333333333
336.04,1.31867057673509
336.048,1.30400782013685
336.056,1.29032258064516
336.064,1.27956989247312
336.072,1.26881720430108
336.08,1.25806451612903
336.088,1.24633431085044
336.096,1.2375366568915
336.104,1.2316715542522
336.112,1.22189638318671
336.12,1.21114369501466
336.128,1.19843597262952
336.136,1.18572825024438
336.144,1.17497556207234
336.152,1.16422287390029
336.16,1.1544477028348
336.168,1.14369501466276
336.176,1.13294232649071
336.184,1.12316715542522
336.192,1.11730205278592
336.2,1.11339198435973
336.208,1.10654936461388
336.216,1.09872922776149
336.224,1.09090909090909
336.232,1.08504398826979
336.24,1.0791788856305
336.248,1.07233626588465
336.256,1.06647116324536
336.264,1.05962854349951
336.272,1.05376344086022
336.28,1.04887585532747
336.288,1.04398826979472
336.296,1.04301075268817
336.304,1.04398826979472
336.312,1.04105571847507
336.32,1.03616813294233
336.328,1.03225806451613
336.336,1.03323558162268
336.344,1.04203323558162
336.352,1.06256109481916
336.36,1.09970674486804
336.368,1.15347018572825
336.376,1.22287390029326
336.384,1.3030303030303
336.392,1.3802541544477
336.4,1.45454545454545
336.408,1.5386119257087
336.416,1.62658846529814
336.424,1.71554252199413
336.432,1.80547409579668
336.44,1.89638318670577
336.448,1.98826979472141
336.456,2.0791788856305
336.464,2.16813294232649
336.472,2.25513196480938
336.48,2.34213098729228
336.488,2.42521994134897
336.496,2.49266862170088
336.504,2.55034213098729
336.512,2.6158357771261
336.52,2.68426197458456
336.528,2.74877810361681
336.536,2.80840664711632
336.544,2.86314760508309
336.552,2.91104594330401
336.56,2.95210166177908
336.568,2.98533724340176
336.576,3.00977517106549
336.584,3.02443792766373
336.592,3.02541544477028
336.6,3.01368523949169
336.608,2.9941348973607
336.616,2.96676441837732
336.624,2.93255131964809
336.632,2.89149560117302
336.64,2.84652981427175
336.648,2.79960899315738
336.656,2.75366568914956
336.664,2.70869990224829
336.672,2.66471163245357
336.68,2.6197458455523
336.688,2.57575757575758
336.696,2.53372434017595
336.704,2.49266862170088
336.712,2.44965786901271
336.72,2.40371456500489
336.728,2.35679374389052
336.736,2.3088954056696
336.744,2.26099706744868
336.752,2.21407624633431
336.76,2.16715542521994
336.768,2.12121212121212
336.776,2.0752688172043
336.784,2.03030303030303
336.792,1.99120234604106
336.8,1.95601173020528
336.808,1.91788856304985
336.816,1.87878787878788
336.824,1.8396871945259
336.832,1.80254154447703
336.84,1.76735092864125
336.848,1.73216031280547
336.856,1.69794721407625
336.864,1.66471163245357
336.872,1.63245356793744
336.88,1.60117302052786
336.888,1.57086999022483
336.896,1.54643206256109
336.904,1.52492668621701
336.912,1.50048875855327
336.92,1.47702834799609
336.928,1.45454545454545
336.936,1.43304007820137
336.944,1.41153470185728
336.952,1.39100684261975
336.96,1.37145650048876
336.968,1.35288367546432
336.976,1.33528836754643
336.984,1.31769305962854
336.992,1.3049853372434
337.0,1.29423264907136
337.008,1.28152492668622
337.016,1.26881720430108
337.024,1.25513196480938
337.032,1.23851417399804
337.04,1.22189638318671
337.048,1.20625610948192
337.056,1.19159335288368
337.064,1.18181818181818
337.072,1.17888563049853
337.08,1.18670576735093
337.088,1.20332355816227
337.096,1.23069403714565
337.104,1.27174975562072
337.112,1.32649071358749
337.12,1.39296187683284
337.128,1.4672531769306
337.136,1.54643206256109
337.144,1.62756598240469
337.152,1.70967741935484
337.16,1.79081133919844
337.168,1.87096774193548
337.176,1.95112414467253
337.184,2.03128054740958
337.192,2.09872922776149
337.2,2.158357771261
337.208,2.2258064516129
337.216,2.29814271749756
337.224,2.37145650048876
337.232,2.44281524926686
337.24,2.51124144672532
337.248,2.57771260997067
337.256,2.64027370478983
337.264,2.69794721407625
337.272,2.74975562072336
337.28,2.79472140762463
337.288,2.82502443792766
337.296,2.84652981427175
337.304,2.86803519061584
337.312,2.88563049853372
337.32,2.89442815249267
337.328,2.89247311827957
337.336,2.88074291300098
337.344,2.85923753665689
337.352,2.82795698924731
337.36,2.78787878787879
337.368,2.74095796676442
337.376,2.69208211143695
337.384,2.64222873900293
337.392,2.59530791788856
337.4,2.55229716520039
337.408,2.50928641251222
337.416,2.46627565982405
337.424,2.42228739002933
337.432,2.3782991202346
337.44,2.33333333333333
337.448,2.28739002932551
337.456,2.23949169110459
337.464,2.19061583577713
337.472,2.14271749755621
337.48,2.09579667644184
337.488,2.05474095796676
337.496,2.01759530791789
337.504,1.97849462365591
337.512,1.93841642228739
337.52,1.89833822091887
337.528,1.85923753665689
337.536,1.82111436950147
337.544,1.78396871945259
337.552,1.74780058651026
337.56,1.71358748778104
337.568,1.68035190615836
337.576,1.64809384164223
337.584,1.6158357771261
337.592,1.58944281524927
337.6,1.56695992179863
337.608,1.54154447702835
337.616,1.51417399804497
337.624,1.48875855327468
337.632,1.4652981427175
337.64,1.44086021505376
337.648,1.41544477028348
337.656,1.39100684261975
337.664,1.36754643206256
337.672,1.34506353861193
337.68,1.32160312805474
337.688,1.30205278592375
337.696,1.28445747800587
337.704,1.26295210166178
337.712,1.24242424242424
337.72,1.22287390029326
337.728,1.20625610948192
337.736,1.19550342130987
337.744,1.19354838709677
337.752,1.20430107526882
337.76,1.22873900293255
337.768,1.26686217008798
337.776,1.31671554252199
337.784,1.37634408602151
337.792,1.43597262952102
337.8,1.49560117302053
337.808,1.56207233626588
337.816,1.63343108504399
337.824,1.70674486803519
337.832,1.78005865102639
337.84,1.85239491691105
337.848,1.92375366568915
337.856,1.9941348973607
337.864,2.06451612903226
337.872,2.13489736070381
337.88,2.20332355816227
337.888,2.25904203323558
337.896,2.30791788856305
337.904,2.36070381231672
337.912,2.41446725317693
337.92,2.46823069403715
337.928,2.50928641251222
337.936,2.53958944281525
337.944,2.57086999022483
337.952,2.59824046920821
337.96,2.6197458455523
337.968,2.63343108504399
337.976,2.63734115347019
337.984,2.63049853372434
337.992,2.61290322580645
338.0,2.58748778103617
338.008,2.55425219941349
338.016,2.51515151515152
338.024,2.47214076246334
338.032,2.42717497556207
338.04,2.38318670576735
338.048,2.33919843597263
338.056,2.29716520039101
338.064,2.25610948191593
338.072,2.21603128054741
338.08,2.17595307917889
338.088,2.13880742913001
338.096,2.10361681329423
338.104,2.06451612903226
338.112,2.02346041055718
338.12,1.98142717497556
338.128,1.93939393939394
338.136,1.89833822091887
338.144,1.85728250244379
338.152,1.81622678396872
338.16,1.7761485826002
338.168,1.73704789833822
338.176,1.6969696969697
338.184,1.65786901270772
338.192,1.62561094819159
338.2,1.59530791788856
338.208,1.56207233626588
338.216,1.52883675464321
338.224,1.49657869012708
338.232,1.46627565982405
338.24,1.43988269794721
338.248,1.41642228739003
338.256,1.39980449657869
338.264,1.3919843597263
338.272,1.39100684261975
338.28,1.39687194525904
338.288,1.40762463343109
338.296,1.42130987292278
338.304,1.43597262952102
338.312,1.45161290322581
338.32,1.4672531769306
338.328,1.48093841642229
338.336,1.49169110459433
338.344,1.49951124144673
338.352,1.50244379276637
338.36,1.50048875855327
338.368,1.49169110459433
338.376,1.47702834799609
338.384,1.45845552297165
338.392,1.44086021505376
338.4,1.42424242424242
338.408,1.40371456500489
338.416,1.38318670576735
338.424,1.36559139784946
338.432,1.35092864125122
338.44,1.33919843597263
338.448,1.32844574780059
338.456,1.31867057673509
338.464,1.3088954056696
338.472,1.29814271749756
338.48,1.28445747800587
338.488,1.27370478983382
338.496,1.26392961876833
338.504,1.25219941348974
338.512,1.23949169110459
338.52,1.22678396871945
338.528,1.21114369501466
338.536,1.19550342130987
338.544,1.17986314760508
338.552,1.16422287390029
338.56,1.15151515151515
338.568,1.13978494623656
338.576,1.12903225806452
338.584,1.11827956989247
338.592,1.11143695014663
338.6,1.10654936461388
338.608,1.09775171065494
338.616,1.08797653958944
338.624,1.07820136852395
338.632,1.06842619745846
338.64,1.05865102639296
338.648,1.05180840664712
338.656,1.04887585532747
338.664,1.04594330400782
338.672,1.04203323558162
338.68,1.03714565004888
338.688,1.03519061583578
338.696,1.03519061583578
338.704,1.03225806451613
338.712,1.02834799608993
338.72,1.02443792766373
338.728,1.02248289345064
338.736,1.01955034213099
338.744,1.01661779081134
338.752,1.01368523949169
338.76,1.00879765395894
338.768,1.00293255131965
338.776,0.997067448680352
338.784,0.991202346041056
338.792,0.989247311827957
338.8,0.992179863147605
338.808,0.999022482893451
338.816,1.01368523949169
338.824,1.04105571847507
338.832,1.0830889540567
338.84,1.14076246334311
338.848,1.21114369501466
338.856,1.29227761485826
338.864,1.38123167155425
338.872,1.47311827956989
338.88,1.56598240469208
338.888,1.64516129032258
