time,ppg
0.0,1.36070381231672
0.008,1.39491691104594
0.016,1.44477028347996
0.024,1.50830889540567
0.032,1.58162267839687
0.04,1.66080156402737
0.048,1.74389051808407
0.056,1.82600195503421
0.064,1.90420332355816
0.072,1.97947214076246
0.08,2.05180840664712
0.088,2.12316715542522
0.096,2.18279569892473
0.104,2.23460410557185
0.112,2.29130009775171
0.12,2.34897360703812
0.128,2.40566959921799
0.136,2.4594330400782
0.144,2.50928641251222
0.152,2.55327468230694
0.16,2.59335288367546
0.168,2.67448680351906
0.176,2.772238514174
0.184,2.82795698924731
0.192,2.85434995112414
0.2,2.86021505376344
0.208,2.85532746823069
0.216,2.841642228739
0.224,2.81720430107527
0.232,2.78299120234604
0.24,2.74389051808407
0.248,2.70478983382209
0.256,2.66764418377322
0.264,2.63245356793744
0.272,2.59824046920821
0.28,2.56402737047898
0.288,2.53176930596285
0.296,2.50146627565982
0.304,2.47116324535679
0.312,2.43890518084066
0.32,2.40469208211144
0.328,2.37145650048876
0.336,2.33822091886608
0.344,2.3069403714565
0.352,2.27761485826002
0.36,2.25122189638319
0.368,2.22482893450635
0.376,2.19843597262952
0.384,2.17204301075269
0.392,2.14760508308895
0.4,2.12316715542522
0.408,2.09286412512219
0.416,2.05962854349951
0.424,2.02346041055718
0.432,1.98533724340176
0.44,1.94525904203324
0.448,1.90322580645161
0.456,1.85923753665689
0.464,1.81524926686217
0.472,1.77126099706745
0.48,1.72629521016618
0.488,1.68621700879765
0.496,1.64809384164223
0.504,1.60606060606061
0.512,1.56109481915934
0.52,1.51515151515152
0.528,1.47018572825024
0.536,1.42521994134897
0.544,1.3802541544477
0.552,1.33626588465298
0.56,1.29227761485826
0.568,1.25219941348974
0.576,1.21603128054741
0.584,1.18084066471163
0.592,1.1544477028348
0.6,1.13391984359726
0.608,1.11143695014663
0.616,1.08895405669599
0.624,1.06647116324536
0.632,1.04496578690127
0.64,1.02639296187683
0.648,1.01075268817204
0.656,0.997067448680352
0.664,0.986314760508309
0.672,0.979472140762463
0.68,0.975562072336266
0.688,0.978494623655914
0.696,0.98435972629521
0.704,0.989247311827957
0.712,0.994134897360704
0.72,0.998044965786901
0.728,1.00293255131965
0.736,1.00782013685239
0.744,1.01173020527859
0.752,1.01466275659824
0.76,1.01857282502444
0.768,1.02052785923754
0.776,1.02150537634409
0.784,1.02150537634409
0.792,1.02443792766373
0.8,1.02932551319648
0.808,1.03030303030303
0.816,1.02932551319648
0.824,1.02639296187683
0.832,1.02248289345064
0.84,1.01857282502444
0.848,1.01661779081134
0.856,1.01564027370479
0.864,1.01564027370479
0.872,1.01564027370479
0.88,1.01564027370479
0.888,1.01955034213099
0.896,1.02541544477028
0.904,1.02932551319648
0.912,1.03225806451613
0.92,1.03519061583578
0.928,1.04007820136852
0.936,1.04398826979472
0.944,1.04789833822092
0.952,1.05376344086022
0.96,1.05962854349951
0.968,1.06647116324536
0.976,1.0733137829912
0.984,1.0811339198436
0.992,1.08993157380254
1.0,1.10068426197458
1.008,1.10948191593353
1.016,1.11730205278592
1.024,1.12512218963832
1.032,1.13196480938416
1.04,1.13685239491691
1.048,1.14173998044966
1.056,1.14467253176931
1.064,1.14565004887586
1.072,1.14565004887586
1.08,1.1485826001955
1.088,1.15542521994135
1.096,1.16911045943304
1.104,1.19354838709677
1.112,1.23069403714565
1.12,1.28054740957967
1.128,1.34310850439883
1.136,1.41739980449658
1.144,1.49951124144673
1.152,1.58455522971652
1.16,1.66862170087977
1.168,1.74975562072336
1.176,1.82893450635386
1.184,1.90615835777126
1.192,1.97262952101662
1.2,2.03323558162268
1.208,2.10166177908113
1.216,2.17204301075269
1.224,2.24242424242424
1.232,2.31182795698925
1.24,2.37927663734115
1.248,2.44477028347996
1.256,2.50537634408602
1.264,2.56109481915934
1.272,2.6099706744868
1.28,2.65200391006843
1.288,2.67937438905181
1.296,2.69599217986315
1.304,2.70869990224829
1.312,2.71358748778104
1.32,2.70869990224829
1.328,2.6950146627566
1.336,2.67350928641251
1.344,2.64613880742913
1.352,2.6158357771261
1.36,2.58553274682307
1.368,2.55816226783969
1.376,2.53176930596285
1.384,2.50830889540567
1.392,2.48680351906158
1.4,2.4652981427175
1.408,2.44281524926686
1.416,2.42033235581623
1.424,2.39882697947214
1.432,2.37536656891496
1.44,2.35092864125122
1.448,2.32551319648094
1.456,2.30009775171066
1.464,2.27468230694037
1.472,2.24828934506354
1.48,2.22189638318671
1.488,2.19745845552297
1.496,2.17302052785924
1.504,2.1485826001955
1.512,2.12316715542522
1.52,2.09677419354839
1.528,2.06842619745846
1.536,2.04007820136852
1.544,2.01075268817204
1.552,1.98142717497556
1.56,1.95307917888563
1.568,1.92570869990225
1.576,1.89931573802542
1.584,1.87292277614858
1.592,1.85043988269795
1.6,1.83284457478006
1.608,1.81622678396872
1.616,1.80058651026393
1.624,1.78592375366569
1.632,1.77126099706745
1.64,1.75659824046921
1.648,1.73998044965787
1.656,1.72140762463343
1.664,1.70283479960899
1.672,1.68328445747801
1.68,1.65982404692082
1.688,1.63929618768328
1.696,1.6217008797654
1.704,1.60215053763441
1.712,1.58357771260997
1.72,1.56695992179863
1.728,1.55131964809384
1.736,1.53567937438905
1.744,1.52297165200391
1.752,1.51221896383187
1.76,1.50342130987292
1.768,1.49755620723363
1.776,1.49462365591398
1.784,1.49169110459433
1.792,1.48973607038123
1.8,1.48680351906158
1.808,1.48191593352884
1.816,1.47605083088954
1.824,1.47214076246334
1.832,1.47311827956989
1.84,1.48387096774194
1.848,1.50830889540567
1.856,1.54936461388074
1.864,1.60606060606061
1.872,1.67644183773216
1.88,1.75757575757576
1.888,1.83284457478006
1.896,1.90322580645161
1.904,1.98044965786901
1.912,2.05669599217986
1.92,2.13196480938416
1.928,2.20430107526882
1.936,2.27272727272727
1.944,2.33724340175953
1.952,2.39980449657869
1.96,2.4594330400782
1.968,2.51612903225806
1.976,2.56793743890518
1.984,2.6158357771261
1.992,2.65200391006843
2.0,2.68035190615836
2.008,2.71065493646139
2.016,2.73607038123167
2.024,2.75562072336266
2.032,2.76735092864125
2.04,2.76930596285435
2.048,2.75855327468231
2.056,2.73509286412512
2.064,2.6989247311828
2.072,2.65102639296188
2.08,2.59530791788856
2.088,2.53958944281525
2.096,2.48387096774194
2.104,2.42424242424242
2.112,2.36363636363636
2.12,2.30205278592375
2.128,2.23851417399804
2.136,2.17595307917889
2.144,2.11241446725318
2.152,2.04692082111437
2.16,1.98044965786901
2.168,1.91300097751711
2.176,1.84457478005865
2.184,1.77517106549365
2.192,1.71554252199413
2.2,1.65982404692082
2.208,1.59530791788856
2.216,1.53958944281525
2.224,1.48875855327468
2.232,1.42913000977517
2.24,1.36559139784946
2.248,1.29912023460411
2.256,1.23264907135875
2.264,1.16813294232649
2.272,1.10654936461388
2.28,1.04594330400782
2.288,0.998044965786901
2.296,0.956989247311828
2.304,0.909090909090909
2.312,0.859237536656892
2.32,0.810361681329423
2.328,0.763440860215054
2.336,0.720430107526882
2.344,0.679374389051808
2.352,0.639296187683284
2.36,0.601173020527859
2.368,0.565004887585533
2.376,0.529814271749756
2.384,0.505376344086022
2.392,0.485826001955034
2.4,0.462365591397849
2.408,0.437927663734115
2.416,0.412512218963832
2.424,0.388074291300098
2.432,0.363636363636364
2.44,0.342130987292278
2.448,0.321603128054741
2.456,0.302052785923754
2.464,0.282502443792766
2.472,0.262952101661779
2.48,0.243401759530792
2.488,0.232649071358749
2.496,0.227761485826002
2.504,0.219941348973607
2.512,0.21505376344086
2.52,0.217008797653959
2.528,0.231671554252199
2.536,0.26197458455523
2.544,0.308895405669599
2.552,0.370478983382209
2.56,0.444770283479961
2.568,0.527859237536657
2.576,0.61485826001955
2.584,0.695992179863148
2.592,0.772238514173998
2.6,0.848484848484849
2.608,0.921798631476051
2.616,0.991202346041056
2.624,1.05767350928641
2.632,1.12414467253177
2.64,1.18866080156403
2.648,1.25219941348974
2.656,1.31378299120235
2.664,1.37341153470186
2.672,1.43206256109482
2.68,1.48973607038123
2.688,1.5386119257087
2.696,1.57966764418377
2.704,1.62072336265885
2.712,1.65786901270772
2.72,1.6871945259042
2.728,1.70674486803519
2.736,1.71652003910068
2.744,1.71749755620723
2.752,1.70967741935484
2.76,1.69794721407625
2.768,1.68426197458456
2.776,1.67057673509286
2.784,1.65982404692082
2.792,1.65102639296188
2.8,1.64320625610948
2.808,1.63538611925709
2.816,1.62658846529814
2.824,1.6158357771261
2.832,1.60215053763441
2.84,1.58748778103617
2.848,1.57184750733138
2.856,1.55327468230694
2.864,1.53372434017595
2.872,1.51417399804497
2.88,1.49462365591398
2.888,1.47898338220919
2.896,1.4652981427175
2.904,1.44965786901271
2.912,1.43108504398827
2.92,1.41153470185728
2.928,1.39296187683284
2.936,1.37341153470186
2.944,1.35581622678397
2.952,1.33919843597263
2.96,1.32355816226784
2.968,1.30987292277615
2.976,1.29912023460411
2.984,1.29325513196481
2.992,1.29032258064516
3.0,1.28445747800587
3.008,1.27761485826002
3.016,1.27174975562072
3.024,1.26588465298143
3.032,1.26197458455523
3.04,1.26197458455523
3.048,1.26881720430108
3.056,1.28347996089932
3.064,1.30596285434995
3.072,1.33626588465298
3.08,1.36950146627566
3.088,1.40078201368524
3.096,1.43010752688172
3.104,1.4613880742913
3.112,1.49071358748778
3.12,1.51515151515152
3.128,1.53372434017595
3.136,1.54838709677419
3.144,1.55718475073314
3.152,1.56207233626588
3.16,1.56207233626588
3.168,1.55816226783969
3.176,1.55229716520039
3.184,1.54740957966764
3.192,1.54154447702835
3.2,1.53372434017595
3.208,1.52785923753666
3.216,1.52297165200391
3.224,1.51612903225806
3.232,1.50635386119257
3.24,1.49169110459433
3.248,1.47018572825024
3.256,1.44086021505376
3.264,1.40566959921799
3.272,1.36656891495601
3.28,1.32453567937439
3.288,1.29032258064516
3.296,1.26197458455523
3.304,1.2316715542522
3.312,1.20527859237537
3.32,1.18572825024438
3.328,1.17399804496579
3.336,1.16911045943304
3.344,1.16813294232649
3.352,1.17008797653959
3.36,1.17106549364614
3.368,1.16911045943304
3.376,1.16715542521994
3.384,1.16715542521994
3.392,1.16617790811339
3.4,1.16129032258065
3.408,1.15347018572825
3.416,1.14565004887586
3.424,1.13880742913001
3.432,1.13098729227761
3.44,1.12512218963832
3.448,1.12121212121212
3.456,1.11827956989247
3.464,1.11632453567937
3.472,1.11339198435973
3.48,1.10850439882698
3.488,1.10654936461388
3.496,1.10557184750733
3.504,1.10068426197458
3.512,1.09481915933529
3.52,1.08797653958944
3.528,1.08015640273705
3.536,1.07233626588465
3.544,1.06256109481916
3.552,1.04985337243402
3.56,1.03323558162268
3.568,1.01368523949169
3.576,0.991202346041056
3.584,0.975562072336266
3.592,0.965786901270772
3.6,0.958944281524927
3.608,0.961876832844575
3.616,0.981427174975562
3.624,1.02346041055718
3.632,1.08797653958944
3.64,1.17204301075269
3.648,1.27174975562072
3.656,1.3822091886608
3.664,1.49951124144673
3.672,1.61681329423265
3.68,1.73216031280547
3.688,1.83088954056696
3.696,1.9208211143695
3.704,2.01857282502444
3.712,2.11632453567937
3.72,2.21309872922776
3.728,2.30987292277615
3.736,2.40469208211144
3.744,2.49755620723363
3.752,2.58748778103617
3.76,2.67448680351906
3.768,2.75953079178886
3.776,2.84066471163245
3.784,2.90322580645161
3.792,2.95503421309873
3.8,3.01075268817204
3.808,3.06353861192571
3.816,3.11045943304008
3.824,3.14760508308895
3.832,3.17204301075269
3.84,3.18475073313783
3.848,3.18475073313783
3.856,3.17204301075269
3.864,3.14565004887586
3.872,3.10850439882698
3.88,3.06451612903226
3.888,3.01857282502444
3.896,2.97165200391007
3.904,2.92375366568915
3.912,2.87683284457478
3.92,2.83088954056696
3.928,2.78494623655914
3.936,2.73998044965787
3.944,2.69403714565005
3.952,2.64711632453568
3.96,2.59921798631476
3.968,2.55034213098729
3.976,2.50146627565982
3.984,2.455522971652
3.992,2.41251221896383
4.0,2.36754643206256
4.008,2.32258064516129
4.016,2.27761485826002
4.024,2.2336265884653
4.032,2.19061583577713
4.04,2.14956011730205
4.048,2.10948191593353
4.056,2.07038123167155
4.064,2.03225806451613
4.072,1.99511241446725
4.08,1.96187683284457
4.088,1.93157380254154
4.096,1.89833822091887
4.104,1.86217008797654
4.112,1.82502443792766
4.12,1.78885630498534
4.128,1.75366568914956
4.136,1.71847507331378
4.144,1.6852394916911
4.152,1.65493646138807
4.16,1.62658846529814
4.168,1.59921798631476
4.176,1.57086999022483
4.184,1.54838709677419
4.192,1.52883675464321
4.2,1.50733137829912
4.208,1.48484848484848
4.216,1.4613880742913
4.224,1.43695014662757
4.232,1.41251221896383
4.24,1.38905180840665
4.248,1.36559139784946
4.256,1.34213098729228
4.264,1.42815249266862
4.272,1.57086999022483
4.28,1.63831867057674
4.288,1.66862170087977
4.296,1.67741935483871
4.304,1.67350928641251
4.312,1.66275659824047
4.32,1.64907135874878
4.328,1.63734115347019
4.336,1.63049853372434
4.344,1.63049853372434
4.352,1.63929618768328
4.36,1.65982404692082
4.368,1.6930596285435
4.376,1.73802541544477
4.384,1.78494623655914
4.392,1.83479960899316
4.4,1.89345063538612
4.408,1.95698924731183
4.416,2.02150537634409
4.424,2.08699902248289
4.432,2.15347018572825
4.44,2.22091886608016
4.448,2.28739002932551
4.456,2.35483870967742
4.464,2.42326490713587
4.472,2.49071358748778
4.48,2.54740957966764
4.488,2.59628543499511
4.496,2.65200391006843
4.504,2.70869990224829
4.512,2.7644183773216
4.52,2.81818181818182
4.528,2.86999022482893
4.536,2.91788856304985
4.544,2.95992179863148
4.552,2.99706744868035
4.56,3.02834799608993
4.568,3.05278592375367
4.576,3.069403714565
4.584,3.0752688172043
4.592,3.0713587487781
4.6,3.06060606060606
4.608,3.04301075268817
4.616,3.01955034213099
4.624,2.99022482893451
4.632,2.95698924731183
4.64,2.92179863147605
4.648,2.88465298142718
4.656,2.8475073313783
4.664,2.80840664711632
4.672,2.7683284457478
4.68,2.73020527859238
4.688,2.69208211143695
4.696,2.65102639296188
4.704,2.60703812316716
4.712,2.56304985337243
4.72,2.51906158357771
4.728,2.47507331378299
4.736,2.43206256109482
4.744,2.38905180840665
4.752,2.34701857282502
4.76,2.3069403714565
4.768,2.26881720430108
4.776,2.23264907135875
4.784,2.20136852394917
4.792,2.17302052785924
4.8,2.14271749755621
4.808,2.11241446725318
4.816,2.08211143695015
4.824,2.05376344086022
4.832,2.02541544477028
4.84,1.99706744868035
4.848,1.96969696969697
4.856,1.94134897360704
4.864,1.91202346041056
4.872,1.88367546432063
4.88,1.85923753665689
4.888,1.83870967741935
4.896,1.81720430107527
4.904,1.79667644183773
4.912,1.7761485826002
4.92,1.75562072336266
4.928,1.73509286412512
4.936,1.71652003910068
4.944,1.69794721407625
4.952,1.67937438905181
4.96,1.66177908113392
4.968,1.64516129032258
4.976,1.62952101661779
4.984,1.6177908113392
4.992,1.60899315738025
5.0,1.60019550342131
5.008,1.59726295210166
5.016,1.60215053763441
5.024,1.61681329423265
5.032,1.64222873900293
5.04,1.67741935483871
5.048,1.72140762463343
5.056,1.772238514174
5.064,1.82697947214076
5.072,1.88367546432063
5.08,1.93352883675464
5.088,1.97947214076246
5.096,2.02932551319648
5.104,2.08015640273705
5.112,2.13098729227761
5.12,2.18084066471163
5.128,2.2297165200391
5.136,2.27859237536657
5.144,2.32746823069404
5.152,2.37438905180841
5.16,2.41837732160313
5.168,2.4594330400782
5.176,2.49853372434018
5.184,2.52883675464321
5.192,2.55327468230694
5.2,2.57771260997067
5.208,2.59921798631476
5.216,2.6158357771261
5.224,2.62854349951124
5.232,2.63440860215054
5.24,2.63245356793744
5.248,2.62267839687195
5.256,2.60606060606061
5.264,2.58357771260997
5.272,2.55816226783969
5.28,2.5327468230694
5.288,2.50733137829912
5.296,2.48093841642229
5.304,2.455522971652
5.312,2.43010752688172
5.32,2.40371456500489
5.328,2.37732160312805
5.336,2.34995112414467
5.344,2.32160312805474
5.352,2.29227761485826
5.36,2.26295210166178
5.368,2.2336265884653
5.376,2.20430107526882
5.384,2.17888563049853
5.392,2.15542521994135
5.4,2.13000977517107
5.408,2.10361681329423
5.416,2.0772238514174
5.424,2.04985337243402
5.432,2.02248289345064
5.44,1.99706744868035
5.448,1.97262952101662
5.456,1.95014662756598
5.464,1.9286412512219
5.472,1.90615835777126
5.48,1.88856304985337
5.488,1.87292277614858
5.496,1.85434995112414
5.504,1.83479960899316
5.512,1.81622678396872
5.52,1.79863147605083
5.528,1.78299120234604
5.536,1.76930596285435
5.544,1.75953079178886
5.552,1.75464320625611
5.56,1.75464320625611
5.568,1.75953079178886
5.576,1.76930596285435
5.584,1.78103616813294
5.592,1.79374389051808
5.6,1.80645161290323
5.608,1.81818181818182
5.616,1.82893450635386
5.624,1.83675464320626
5.632,1.84066471163245
5.64,1.8396871945259
5.648,1.83382209188661
5.656,1.82209188660802
5.664,1.80742913000978
5.672,1.79081133919844
5.68,1.77517106549365
5.688,1.76148582600196
5.696,1.74584555229717
5.704,1.73020527859238
5.712,1.71652003910068
5.72,1.70283479960899
5.728,1.6911045943304
5.736,1.68035190615836
5.744,1.66959921798631
5.752,1.65884652981427
5.76,1.64809384164223
5.768,1.63734115347019
5.776,1.62561094819159
5.784,1.6158357771261
5.792,1.60703812316716
5.8,1.59335288367546
5.808,1.57673509286413
5.816,1.56011730205279
5.824,1.5425219941349
5.832,1.52492668621701
5.84,1.50733137829912
5.848,1.48875855327468
5.856,1.47116324535679
5.864,1.45259042033236
5.872,1.43304007820137
5.88,1.41739980449658
5.888,1.40566959921799
5.896,1.39100684261975
5.904,1.37438905180841
5.912,1.35679374389052
5.92,1.34017595307918
5.928,1.32258064516129
5.936,1.30400782013685
5.944,1.28445747800587
5.952,1.26588465298143
5.96,1.24731182795699
5.968,1.227761485826
5.976,1.21505376344086
5.984,1.20430107526882
5.992,1.18768328445748
6.0,1.17008797653959
6.008,1.1524926686217
6.016,1.13587487781036
6.024,1.12023460410557
6.032,1.10459433040078
6.04,1.08895405669599
6.048,1.0752688172043
6.056,1.06451612903226
6.064,1.05474095796676
6.072,1.04789833822092
6.08,1.04985337243402
6.088,1.05962854349951
6.096,1.0752688172043
6.104,1.10068426197458
6.112,1.13978494623656
6.12,1.19257086999022
6.128,1.25708699902248
6.136,1.33040078201369
6.144,1.40957966764418
6.152,1.49071358748778
6.16,1.56989247311828
6.168,1.64613880742913
6.176,1.71163245356794
6.184,1.7702834799609
6.192,1.83186705767351
6.2,1.89442815249267
6.208,1.95601173020528
6.216,2.01759530791789
6.224,2.08015640273705
6.232,2.14173998044966
6.24,2.20136852394917
6.248,2.25806451612903
6.256,2.3128054740958
6.264,2.36461388074291
6.272,2.41251221896383
6.28,2.44965786901271
6.288,2.47898338220919
6.296,2.50635386119257
6.304,2.52883675464321
6.312,2.52590420332356
6.32,2.50635386119257
6.328,2.49364613880743
6.336,2.48289345063539
6.344,2.47018572825024
6.352,2.45650048875855
6.36,2.44379276637341
6.368,2.43108504398827
6.376,2.41837732160313
6.384,2.40566959921799
6.392,2.39296187683284
6.4,2.3782991202346
6.408,2.36363636363636
6.416,2.34799608993157
6.424,2.32942326490714
6.432,2.3088954056696
6.44,2.28739002932551
6.448,2.26392961876833
6.456,2.24046920821114
6.464,2.21700879765396
6.472,2.19452590420332
6.48,2.17399804496579
6.488,2.15542521994135
6.496,2.13587487781036
6.504,2.11436950146628
6.512,2.09286412512219
6.52,2.0713587487781
6.528,2.04985337243402
6.536,2.02834799608993
6.544,2.00684261974585
6.552,1.98631476050831
6.56,1.96676441837732
6.568,1.94721407624633
6.576,1.92961876832845
6.584,1.91397849462366
6.592,1.89638318670577
6.6,1.87878787878788
6.608,1.86119257086999
6.616,1.8435972629521
6.624,1.82795698924731
6.632,1.81329423264907
6.64,1.79863147605083
6.648,1.78299120234604
6.656,1.7663734115347
6.664,1.74975562072336
6.672,1.73411534701857
6.68,1.72140762463343
6.688,1.71065493646139
6.696,1.69794721407625
6.704,1.68426197458456
6.712,1.67057673509286
6.72,1.65689149560117
6.728,1.64320625610948
6.736,1.62952101661779
6.744,1.6158357771261
6.752,1.60312805474096
6.76,1.59042033235582
6.768,1.57869012707722
6.776,1.57086999022483
6.784,1.56304985337243
6.792,1.55229716520039
6.8,1.5425219941349
6.808,1.5327468230694
6.816,1.52688172043011
6.824,1.52785923753666
6.832,1.53958944281525
6.84,1.56207233626588
6.848,1.59726295210166
6.856,1.64418377321603
6.864,1.69794721407625
6.872,1.75659824046921
6.88,1.80840664711632
6.888,1.85728250244379
6.896,1.91006842619746
6.904,1.96383186705767
6.912,2.01759530791789
6.92,2.07038123167155
6.928,2.12218963831867
6.936,2.17204301075269
6.944,2.22091886608016
6.952,2.26783968719453
6.96,2.3128054740958
6.968,2.35483870967742
6.976,2.38905180840665
6.984,2.41837732160313
6.992,2.45063538611926
7.0,2.48289345063539
7.008,2.51319648093842
7.016,2.53958944281525
7.024,2.56109481915934
7.032,2.57575757575758
7.04,2.58455522971652
7.048,2.58651026392962
7.056,2.58162267839687
7.064,2.56989247311828
7.072,2.55327468230694
7.08,2.53567937438905
7.088,2.51710654936461
7.096,2.49755620723363
7.104,2.47800586510264
7.112,2.45845552297165
7.12,2.43890518084066
7.128,2.41837732160313
7.136,2.39687194525904
7.144,2.37438905180841
7.152,2.34897360703812
7.16,2.32258064516129
7.168,2.29521016617791
7.176,2.26979472140762
7.184,2.24633431085044
7.192,2.22091886608016
7.2,2.19550342130987
7.208,2.17106549364614
7.216,2.14565004887586
7.224,2.12023460410557
7.232,2.09481915933529
7.24,2.069403714565
7.248,2.04496578690127
7.256,2.01955034213099
7.264,1.99511241446725
7.272,1.97165200391007
7.28,1.95210166177908
7.288,1.93450635386119
7.296,1.91397849462366
7.304,1.89345063538612
7.312,1.87194525904203
7.32,1.85043988269795
7.328,1.83088954056696
7.336,1.81133919843597
7.344,1.79178885630499
7.352,1.772238514174
7.36,1.75268817204301
7.368,1.73411534701857
7.376,1.71945259042033
7.384,1.70772238514174
7.392,1.6930596285435
7.4,1.67741935483871
7.408,1.66177908113392
7.416,1.64613880742913
7.424,1.63147605083089
7.432,1.61485826001955
7.44,1.59824046920821
7.448,1.58260019550342
7.456,1.56695992179863
7.464,1.55327468230694
7.472,1.54349951124145
7.48,1.5405669599218
7.488,1.544477028348
7.496,1.55718475073314
7.504,1.58162267839687
7.512,1.6177908113392
7.52,1.66373411534702
7.528,1.71652003910068
7.536,1.7741935483871
7.544,1.83284457478006
7.552,1.89051808406647
7.56,1.94721407624633
7.568,2.0058651026393
7.576,2.05669599217986
7.584,2.10263929618768
7.592,2.1544477028348
7.6,2.21016617790811
7.608,2.26881720430108
7.616,2.32746823069404
7.624,2.38514173998045
7.632,2.44086021505376
7.64,2.49560117302053
7.648,2.54740957966764
7.656,2.59726295210166
7.664,2.64418377321603
7.672,2.68817204301075
7.68,2.72140762463343
7.688,2.74682306940371
7.696,2.77321603128055
7.704,2.79765395894428
7.712,2.81622678396872
7.72,2.82893450635386
7.728,2.83284457478006
7.736,2.82991202346041
7.744,2.82111436950147
7.752,2.80645161290323
7.76,2.78690127077224
7.768,2.76539589442815
7.776,2.74291300097752
7.784,2.72043010752688
7.792,2.6969696969697
7.8,2.67350928641251
7.808,2.64907135874878
7.816,2.62365591397849
7.824,2.59824046920821
7.832,2.57086999022483
7.84,2.54154447702835
7.848,2.51221896383187
7.856,2.48289345063539
7.864,2.45454545454545
7.872,2.42815249266862
7.88,2.40371456500489
7.888,2.37732160312805
7.896,2.34995112414467
7.904,2.32160312805474
7.912,2.29325513196481
7.92,2.26588465298143
7.928,2.23851417399804
7.936,2.21212121212121
7.944,2.18670576735093
7.952,2.16129032258065
7.96,2.13685239491691
7.968,2.11143695014663
7.976,2.08895405669599
7.984,2.069403714565
7.992,2.05083088954057
8.0,2.03616813294233
8.008,2.02639296187683
8.016,2.02443792766373
8.024,2.03225806451613
8.032,2.04887585532747
8.04,2.07233626588465
8.048,2.10166177908113
8.056,2.13587487781036
8.064,2.17106549364614
8.072,2.20136852394917
8.08,2.227761485826
8.088,2.25610948191593
8.096,2.28445747800587
8.104,2.3108504398827
8.112,2.33528836754643
8.12,2.35972629521017
8.128,2.3822091886608
8.136,2.40273704789834
8.144,2.42228739002933
8.152,2.43988269794721
8.16,2.45650048875855
8.168,2.47018572825024
8.176,2.47800586510264
8.184,2.47996089931574
8.192,2.47800586510264
8.2,2.47018572825024
8.208,2.455522971652
8.216,2.43597262952102
8.224,2.41251221896383
8.232,2.38709677419355
8.24,2.36265884652981
8.248,2.34017595307918
8.256,2.31867057673509
8.264,2.29814271749756
8.272,2.27956989247312
8.28,2.26197458455523
8.288,2.24242424242424
8.296,2.22091886608016
8.304,2.19843597262952
8.312,2.17497556207234
8.32,2.14956011730205
8.328,2.12316715542522
8.336,2.09677419354839
8.344,2.0713587487781
8.352,2.04594330400782
8.36,1.95307917888563
8.368,1.82306940371456
8.376,1.74682306940371
8.384,1.6969696969697
8.392,1.65493646138807
8.4,1.6177908113392
8.408,1.58357771260997
8.416,1.54936461388074
8.424,1.51515151515152
8.432,1.48191593352884
8.44,1.44770283479961
8.448,1.41544477028348
8.456,1.38514173998045
8.464,1.35679374389052
8.472,1.33626588465298
8.48,1.31867057673509
8.488,1.29814271749756
8.496,1.27468230694037
8.504,1.25122189638319
8.512,1.2297165200391
8.52,1.21016617790811
8.528,1.19745845552297
8.536,1.19550342130987
8.544,1.20723362658847
8.552,1.23655913978495
8.56,1.28250244379277
8.568,1.34506353861193
8.576,1.41055718475073
8.584,1.47898338220919
8.592,1.56109481915934
8.6,1.64809384164223
8.608,1.73607038123167
8.616,1.82013685239492
8.624,1.90029325513196
8.632,1.97751710654936
8.64,2.05083088954057
8.648,2.12218963831867
8.656,2.19159335288368
8.664,2.25806451612903
8.672,2.31378299120235
8.68,2.36168132942327
8.688,2.41251221896383
8.696,2.46432062561095
8.704,2.51417399804497
8.712,2.56207233626588
8.72,2.60410557184751
8.728,2.63929618768328
8.736,2.66471163245357
8.744,2.67937438905181
8.752,2.68328445747801
8.76,2.67546432062561
8.768,2.65493646138807
8.776,2.62658846529814
8.784,2.59237536656891
8.792,2.55425219941349
8.8,2.51515151515152
8.808,2.47605083088954
8.816,2.43988269794721
8.824,2.40469208211144
8.832,2.37047898338221
8.84,2.33528836754643
8.848,2.29716520039101
8.856,2.25610948191593
8.864,2.21309872922776
8.872,2.17302052785924
8.88,2.13294232649071
8.888,2.08895405669599
8.896,2.04398826979472
8.904,1.9980449657869
8.912,1.95307917888563
8.92,1.91006842619746
8.928,1.86803519061584
8.936,1.82502443792766
8.944,1.78005865102639
8.952,1.73607038123167
8.96,1.69403714565005
8.968,1.65395894428153
8.976,1.62072336265885
8.984,1.59237536656891
8.992,1.56304985337243
9.0,1.53372434017595
9.008,1.50244379276637
9.016,1.47214076246334
9.024,1.44086021505376
9.032,1.41055718475073
9.04,1.38123167155425
9.048,1.35288367546432
9.056,1.32746823069404
9.064,1.3030303030303
9.072,1.28445747800587
9.08,1.26881720430108
9.088,1.24926686217009
9.096,1.227761485826
9.104,1.20625610948192
9.112,1.18572825024438
9.12,1.16422287390029
9.128,1.14271749755621
9.136,1.11925708699902
9.144,1.09677419354839
9.152,1.07624633431085
9.16,1.05571847507331
9.168,1.03616813294233
9.176,1.02248289345064
9.184,1.00977517106549
9.192,0.995112414467253
9.2,0.980449657869013
9.208,0.965786901270772
9.216,0.952101661779081
9.224,0.93841642228739
9.232,0.92375366568915
9.24,0.909090909090909
9.248,0.894428152492669
9.256,0.881720430107527
9.264,0.872922776148583
9.272,0.872922776148583
9.28,0.884652981427175
9.288,0.909090909090909
9.296,0.951124144672532
9.304,1.01173020527859
9.312,1.09090909090909
9.32,1.18475073313783
9.328,1.28934506353861
9.336,1.39784946236559
9.344,1.50537634408602
9.352,1.60899315738025
9.36,1.70967741935484
9.368,1.80645161290323
9.376,1.88856304985337
9.384,1.96187683284457
9.392,2.04301075268817
9.4,2.13000977517107
9.408,2.21798631476051
9.416,2.3049853372434
9.424,2.3880742913001
9.432,2.4672531769306
9.44,2.54154447702835
9.448,2.6119257086999
9.456,2.67448680351906
9.464,2.72825024437928
9.472,2.7663734115347
9.48,2.79569892473118
9.488,2.82502443792766
9.496,2.85043988269795
9.504,2.86803519061584
9.512,2.87585532746823
9.52,2.87390029325513
9.528,2.86119257086999
9.536,2.83577712609971
9.544,2.80058651026393
9.552,2.75855327468231
9.56,2.71163245356794
9.568,2.66568914956012
9.576,2.62267839687195
9.584,2.58064516129032
9.592,2.53763440860215
9.6,2.49266862170088
9.608,2.44868035190616
9.616,2.40371456500489
9.624,2.35679374389052
9.632,2.30791788856305
9.64,2.25806451612903
9.648,2.20723362658847
9.656,2.15542521994135
9.664,2.10166177908113
9.672,2.05376344086022
9.68,2.00977517106549
9.688,1.96383186705767
9.696,1.9169110459433
9.704,1.86999022482893
9.712,1.82404692082111
9.72,1.78005865102639
9.728,1.73900293255132
9.736,1.70087976539589
9.744,1.66471163245357
9.752,1.62854349951124
9.76,1.59335288367546
9.768,1.56402737047898
9.776,1.53567937438905
9.784,1.50342130987292
9.792,1.47116324535679
9.8,1.43890518084066
9.808,1.40566959921799
9.816,1.37243401759531
9.824,1.34115347018573
9.832,1.30987292277615
9.84,1.27956989247312
9.848,1.24926686217009
9.856,1.22287390029326
9.864,1.19843597262952
9.872,1.17888563049853
9.88,1.16324535679374
9.888,1.14369501466276
9.896,1.12218963831867
9.904,1.09970674486804
9.912,1.0772238514174
9.92,1.05376344086022
9.928,1.03128054740958
9.936,1.01075268817204
9.944,0.994134897360704
9.952,0.98435972629521
9.96,0.983382209188661
9.968,0.993157380254154
9.976,1.01564027370479
9.984,1.05571847507331
9.992,1.11436950146628
10.0,1.18670576735093
10.008,1.26783968719453
10.016,1.35581622678397
10.024,1.44379276637341
10.032,1.53176930596285
10.04,1.61876832844575
10.048,1.70283479960899
10.056,1.78494623655914
10.064,1.86608015640274
10.072,1.93646138807429
10.08,2.00097751710655
10.088,2.07233626588465
10.096,2.1466275659824
10.104,2.22091886608016
10.112,2.29325513196481
10.12,2.36363636363636
10.128,2.43206256109482
10.136,2.49755620723363
10.144,2.55913978494624
10.152,2.6158357771261
10.16,2.66666666666667
10.168,2.70381231671554
10.176,2.72922776148583
10.184,2.75268817204301
10.192,2.76930596285435
10.2,2.7761485826002
10.208,2.7702834799609
10.216,2.75366568914956
10.224,2.72434017595308
10.232,2.68426197458456
10.24,2.63929618768328
10.248,2.59042033235582
10.256,2.5425219941349
10.264,2.49560117302053
10.272,2.45259042033236
10.28,2.41348973607038
10.288,2.37145650048876
10.296,2.32844574780059
10.304,2.28347996089932
10.312,2.2375366568915
10.32,2.18963831867058
10.328,2.13880742913001
10.336,2.08602150537634
10.344,2.03323558162268
10.352,1.98044965786901
10.36,1.92961876832845
10.368,1.88465298142718
10.376,1.84457478005865
10.384,1.80156402737048
10.392,1.75757575757576
10.4,1.71358748778104
10.408,1.70283479960899
10.416,1.70967741935484
10.424,1.69403714565005
10.432,1.66764418377322
10.44,1.63538611925709
10.448,1.60117302052786
10.456,1.56695992179863
10.464,1.5327468230694
10.472,1.50342130987292
10.48,1.47800586510264
10.488,1.44965786901271
10.496,1.42228739002933
10.504,1.40175953079179
10.512,1.3919843597263
10.52,1.39687194525904
10.528,1.41739980449658
10.536,1.45259042033236
10.544,1.50146627565982
10.552,1.56109481915934
10.56,1.62658846529814
10.568,1.68621700879765
10.576,1.74095796676442
10.584,1.79765395894428
10.592,1.85532746823069
10.6,1.91300097751711
10.608,1.96871945259042
10.616,2.02346041055718
10.624,2.0772238514174
10.632,2.12903225806452
10.64,2.18084066471163
10.648,2.23069403714565
10.656,2.27761485826002
10.664,2.32062561094819
10.672,2.35483870967742
10.68,2.38123167155425
10.688,2.40566959921799
10.696,2.42619745845552
10.704,2.43988269794721
10.712,2.44281524926686
10.72,2.43499511241447
10.728,2.41739980449658
10.736,2.38905180840665
10.744,2.35190615835777
10.752,2.30987292277615
10.76,2.26588465298143
10.768,2.22678396871945
10.776,2.19159335288368
10.784,2.15542521994135
10.792,2.11827956989247
10.8,2.0811339198436
10.808,2.04594330400782
10.816,2.00977517106549
10.824,1.97165200391007
10.832,1.93352883675464
10.84,1.89442815249267
10.848,1.8533724340176
10.856,1.81231671554252
10.864,1.77126099706745
10.872,1.73509286412512
10.88,1.70283479960899
10.888,1.66666666666667
10.896,1.62854349951124
10.904,1.59237536656891
10.912,1.55620723362659
10.92,1.52003910068426
10.928,1.48387096774194
10.936,1.44770283479961
10.944,1.41055718475073
10.952,1.37341153470186
10.96,1.33919843597263
10.968,1.3128054740958
10.976,1.29130009775171
10.984,1.26783968719453
10.992,1.24535679374389
11.0,1.22287390029326
11.008,1.19941348973607
11.016,1.17693059628544
11.024,1.1544477028348
11.032,1.13391984359726
11.04,1.11534701857282
11.048,1.09579667644184
11.056,1.0772238514174
11.064,1.05865102639296
11.072,1.04398826979472
11.08,1.03225806451613
11.088,1.01564027370479
11.096,0.998044965786901
11.104,0.982404692082111
11.112,0.966764418377322
11.12,0.951124144672532
11.128,0.935483870967742
11.136,0.920821114369501
11.144,0.905180840664712
11.152,0.891495601173021
11.16,0.878787878787879
11.168,0.871945259042033
11.176,0.869990224828935
11.184,0.865102639296188
11.192,0.860215053763441
11.2,0.858260019550342
11.208,0.865102639296188
11.216,0.883675464320626
11.224,0.916911045943304
11.232,0.96871945259042
11.24,1.03812316715543
11.248,1.12316715542522
11.256,1.21896383186706
11.264,1.32062561094819
11.272,1.41251221896383
11.28,1.50048875855327
11.288,1.59530791788856
11.296,1.6911045943304
11.304,1.78787878787879
11.312,1.88660801564027
11.32,1.98533724340176
11.328,2.08504398826979
11.336,2.18475073313783
11.344,2.28250244379277
11.352,2.37732160312805
11.36,2.47018572825024
11.368,2.54643206256109
11.376,2.6119257086999
11.384,2.68230694037146
11.392,2.74975562072336
11.4,2.81329423264907
11.408,2.86901270772239
11.416,2.91788856304985
11.424,2.95796676441838
11.432,2.98826979472141
11.44,3.00879765395894
11.448,3.01759530791789
11.456,3.01564027370479
11.464,3.00293255131965
11.472,2.97947214076246
11.48,2.94623655913978
11.488,2.90420332355816
11.496,2.85630498533724
11.504,2.80742913000978
11.512,2.75757575757576
11.52,2.70772238514174
11.528,2.65982404692082
11.536,2.61290322580645
11.544,2.56500488758553
11.552,2.51612903225806
11.56,2.46627565982405
11.568,2.41935483870968
11.576,2.37438905180841
11.584,2.32453567937439
11.592,2.27174975562072
11.6,2.21798631476051
11.608,2.16324535679374
11.616,2.10948191593353
11.624,2.05669599217986
11.632,2.00293255131965
11.64,1.95014662756598
11.648,1.89833822091887
11.656,1.8475073313783
11.664,1.80449657869013
11.672,1.76735092864125
11.68,1.72727272727273
11.688,1.6871945259042
11.696,1.64711632453568
11.704,1.60899315738025
11.712,1.57184750733138
11.72,1.5347018572825
11.728,1.49951124144673
11.736,1.46432062561095
11.744,1.43010752688172
11.752,1.39784946236559
11.76,1.36754643206256
11.768,1.34506353861193
11.776,1.32551319648094
11.784,1.3030303030303
11.792,1.27761485826002
11.8,1.25122189638319
11.808,1.2258064516129
11.816,1.19941348973607
11.824,1.17302052785924
11.832,1.14956011730205
11.84,1.12805474095797
11.848,1.10654936461388
11.856,1.08406647116325
11.864,1.069403714565
11.872,1.05767350928641
11.88,1.04398826979472
11.888,1.03323558162268
11.896,1.03128054740958
11.904,1.04398826979472
11.912,1.07233626588465
11.92,1.11436950146628
11.928,1.17008797653959
11.936,1.2375366568915
11.944,1.3128054740958
11.952,1.3919843597263
11.96,1.47116324535679
11.968,1.53958944281525
11.976,1.60215053763441
11.984,1.67057673509286
11.992,1.74095796676442
12.0,1.81133919843597
12.008,1.88074291300098
12.016,1.95014662756598
12.024,2.01955034213099
12.032,2.08699902248289
12.04,2.1524926686217
12.048,2.21700879765396
12.056,2.27859237536657
12.064,2.33040078201369
12.072,2.37438905180841
12.08,2.42130987292278
12.088,2.46627565982405
12.096,2.50439882697947
12.104,2.5347018572825
12.112,2.55620723362659
12.12,2.56695992179863
12.128,2.56598240469208
12.136,2.55425219941349
12.144,2.5347018572825
12.152,2.51124144672532
12.16,2.48387096774194
12.168,2.45454545454545
12.176,2.42815249266862
12.184,2.40371456500489
12.192,2.3782991202346
12.2,2.34995112414467
12.208,2.32160312805474
12.216,2.29227761485826
12.224,2.26099706744868
12.232,2.227761485826
12.24,2.19159335288368
12.248,2.15542521994135
12.256,2.11827956989247
12.264,2.08406647116325
12.272,2.05278592375367
12.28,2.02052785923754
12.288,1.98729227761486
12.296,1.95503421309873
12.304,1.92375366568915
12.312,1.89247311827957
12.32,1.86217008797654
12.328,1.83382209188661
12.336,1.80645161290323
12.344,1.77908113391984
12.352,1.75268817204301
12.36,1.72727272727273
12.368,1.70674486803519
12.376,1.6871945259042
12.384,1.66177908113392
12.392,1.63440860215054
12.4,1.60606060606061
12.408,1.57869012707722
12.416,1.55229716520039
12.424,1.52590420332356
12.432,1.50048875855327
12.44,1.47507331378299
12.448,1.44965786901271
12.456,1.44965786901271
12.464,1.46823069403715
12.472,1.47018572825024
12.48,1.4574780058651
12.488,1.43988269794721
12.496,1.41837732160313
12.504,1.39589442815249
12.512,1.37341153470186
12.52,1.35288367546432
12.528,1.33431085043988
12.536,1.32062561094819
12.544,1.31671554252199
12.552,1.32551319648094
12.56,1.34897360703812
12.568,1.38123167155425
12.576,1.42326490713587
12.584,1.47702834799609
12.592,1.53958944281525
12.6,1.60606060606061
12.608,1.67350928641251
12.616,1.74095796676442
12.624,1.80645161290323
12.632,1.87096774193548
12.64,1.93352883675464
12.648,1.99511241446725
12.656,2.05669599217986
12.664,2.11045943304008
12.672,2.158357771261
12.68,2.21016617790811
12.688,2.26295210166178
12.696,2.31573802541544
12.704,2.36559139784946
12.712,2.41251221896383
12.72,2.45845552297165
12.728,2.50146627565982
12.736,2.53958944281525
12.744,2.57184750733138
12.752,2.59530791788856
12.76,2.6099706744868
12.768,2.613880742913
12.776,2.6080156402737
12.784,2.59237536656891
12.792,2.56793743890518
12.8,2.53763440860215
12.808,2.50342130987292
12.816,2.46823069403715
12.824,2.43401759530792
12.832,2.39882697947214
12.84,2.36559139784946
12.848,2.33235581622678
12.856,2.29716520039101
12.864,2.26392961876833
12.872,2.23069403714565
12.88,2.19354838709677
12.888,2.15542521994135
12.896,2.11730205278592
12.904,2.0791788856305
12.912,2.04203323558162
12.92,2.00488758553275
12.928,1.96676441837732
12.936,1.9266862170088
12.944,1.88660801564027
12.952,1.84652981427175
12.96,1.80645161290323
12.968,1.7741935483871
12.976,1.74389051808407
12.984,1.70967741935484
12.992,1.67448680351906
13.0,1.63831867057674
13.008,1.60215053763441
13.016,1.56598240469208
13.024,1.53176930596285
13.032,1.50048875855327
13.04,1.47018572825024
13.048,1.44183773216031
13.056,1.41642228739003
13.064,1.39882697947214
13.072,1.38709677419355
13.08,1.37634408602151
13.088,1.37243401759531
13.096,1.37536656891496
13.104,1.38514173998045
13.112,1.40273704789834
13.12,1.42424242424242
13.128,1.44672531769306
13.136,1.4692082111437
13.144,1.49071358748778
13.152,1.51026392961877
13.16,1.52785923753666
13.168,1.54349951124145
13.176,1.55718475073314
13.184,1.56793743890518
13.192,1.57575757575758
13.2,1.58162267839687
13.208,1.58357771260997
13.216,1.58064516129032
13.224,1.57282502443793
13.232,1.56011730205279
13.24,1.54349951124145
13.248,1.52492668621701
13.256,1.50537634408602
13.264,1.49071358748778
13.272,1.47996089931574
13.28,1.46823069403715
13.288,1.4574780058651
13.296,1.44770283479961
13.304,1.43792766373412
13.312,1.42815249266862
13.32,1.41642228739003
13.328,1.40175953079179
13.336,1.38514173998045
13.344,1.36754643206256
13.352,1.35190615835777
13.36,1.34115347018573
13.368,1.33235581622678
13.376,1.31964809384164
13.384,1.30596285434995
13.392,1.29130009775171
13.4,1.27565982404692
13.408,1.26099706744868
13.416,1.24731182795699
13.424,1.23460410557185
13.432,1.22189638318671
13.44,1.21114369501466
13.448,1.20039100684262
13.456,1.18963831867058
13.464,1.18377321603128
13.472,1.17986314760508
13.48,1.17204301075269
13.488,1.16324535679374
13.496,1.15347018572825
13.504,1.14369501466276
13.512,1.13489736070381
13.52,1.12512218963832
13.528,1.11436950146628
13.536,1.10557184750733
13.544,1.09677419354839
13.552,1.08797653958944
13.56,1.0830889540567
13.568,1.0811339198436
13.576,1.0772238514174
13.584,1.0713587487781
13.592,1.06549364613881
13.6,1.05865102639296
13.608,1.05180840664712
13.616,1.04398826979472
13.624,1.03714565004888
13.632,1.03225806451613
13.64,1.02932551319648
13.648,1.03128054740958
13.656,1.04105571847507
13.664,1.06060606060606
13.672,1.09090909090909
13.68,1.13587487781036
13.688,1.19550342130987
13.696,1.26686217008798
13.704,1.34701857282502
13.712,1.43206256109482
13.72,1.51808406647116
13.728,1.60312805474096
13.736,1.68426197458456
13.744,1.76050830889541
13.752,1.83479960899316
13.76,1.89931573802542
13.768,1.95894428152493
13.776,2.02248289345064
13.784,2.08797653958944
13.792,2.15347018572825
13.8,2.21700879765396
13.808,2.27956989247312
13.816,2.33919843597263
13.824,2.39589442815249
13.832,2.44868035190616
13.84,2.49560117302053
13.848,2.53567937438905
13.856,2.56695992179863
13.864,2.58455522971652
13.872,2.59139784946237
13.88,2.59139784946237
13.888,2.58357771260997
13.896,2.56793743890518
13.904,2.54838709677419
13.912,2.52688172043011
13.92,2.50244379276637
13.928,2.47702834799609
13.936,2.45063538611926
13.944,2.42521994134897
13.952,2.39784946236559
13.96,2.36950146627566
13.968,2.34213098729228
13.976,2.3128054740958
13.984,2.28152492668622
13.992,2.24828934506354
14.0,2.21407624633431
14.008,2.17986314760508
14.016,2.1466275659824
14.024,2.11436950146628
14.032,2.08211143695015
14.04,2.04789833822092
14.048,2.01466275659824
14.056,1.98142717497556
14.064,1.95210166177908
14.072,1.92570869990225
14.08,1.89736070381232
14.088,1.86705767350929
14.096,1.83675464320626
14.104,1.80645161290323
14.112,1.77712609970674
14.12,1.74780058651026
14.128,1.71847507331378
14.136,1.6891495601173
14.144,1.65884652981427
14.152,1.62854349951124
14.16,1.60312805474096
14.168,1.58064516129032
14.176,1.55620723362659
14.184,1.53176930596285
14.192,1.50733137829912
14.2,1.48387096774194
14.208,1.4633431085044
14.216,1.44379276637341
14.224,1.42619745845552
14.232,1.40860215053763
14.24,1.39100684261975
14.248,1.37243401759531
14.256,1.35386119257087
14.264,1.34115347018573
14.272,1.33040078201369
14.28,1.31671554252199
14.288,1.30205278592375
14.296,1.28836754643206
14.304,1.27468230694037
14.312,1.26099706744868
14.32,1.24926686217009
14.328,1.23851417399804
14.336,1.227761485826
14.344,1.21603128054741
14.352,1.20136852394917
14.36,1.19061583577713
14.368,1.18279569892473
14.376,1.17302052785924
14.384,1.16715542521994
14.392,1.17008797653959
14.4,1.18670576735093
14.408,1.21700879765396
14.416,1.26392961876833
14.424,1.32649071358749
14.432,1.39980449657869
14.44,1.47996089931574
14.448,1.56304985337243
14.456,1.64809384164223
14.464,1.72238514173998
14.472,1.78983382209189
14.48,1.86314760508309
14.488,1.93939393939394
14.496,2.01759530791789
14.504,2.16520039100684
14.512,2.35386119257087
14.52,2.49951124144673
14.528,2.62365591397849
14.536,2.73313782991202
14.544,2.83382209188661
14.552,2.92766373411535
14.56,3.00097751710655
14.568,3.06256109481916
14.576,3.12903225806452
14.584,3.19354838709677
14.592,3.25317693059629
14.6,3.3069403714565
14.608,3.35190615835777
14.616,3.38514173998045
14.624,3.40566959921799
14.632,3.41251221896383
14.64,3.40566959921799
14.648,3.386119257087
14.656,3.35483870967742
14.664,3.31769305962854
14.672,3.27761485826002
14.68,3.23264907135875
14.688,3.18475073313783
14.696,3.13685239491691
14.704,3.08895405669599
14.712,3.04007820136852
14.72,2.99022482893451
14.728,2.94037145650049
14.736,2.89149560117302
14.744,2.84261974584555
14.752,2.79178885630499
14.76,2.74486803519062
14.768,2.69990224828934
14.776,2.65200391006843
14.784,2.60410557184751
14.792,2.55522971652004
14.8,2.50635386119257
14.808,2.45650048875855
14.816,2.40664711632454
14.824,2.35777126099707
14.832,2.30987292277615
14.84,2.26197458455523
14.848,2.21309872922776
14.856,2.16324535679374
14.864,2.11925708699902
14.872,2.08015640273705
14.88,2.03714565004888
14.888,1.99217986314761
14.896,1.94721407624633
14.904,1.90224828934506
14.912,1.85923753665689
14.92,1.81818181818182
14.928,1.77810361681329
14.936,1.73900293255132
14.944,1.70185728250244
14.952,1.66764418377322
14.96,1.63929618768328
14.968,1.613880742913
14.976,1.58455522971652
14.984,1.55131964809384
14.992,1.51515151515152
15.0,1.47800586510264
15.008,1.44086021505376
15.016,1.40469208211144
15.024,1.36950146627566
15.032,1.33528836754643
15.04,1.3069403714565
15.048,1.29032258064516
15.056,1.28739002932551
15.064,1.29814271749756
15.072,1.32551319648094
15.08,1.37047898338221
15.088,1.43206256109482
15.096,1.50928641251222
15.104,1.59824046920821
15.112,1.69208211143695
15.12,1.78983382209189
15.128,1.89051808406647
15.136,1.98924731182796
15.144,2.08406647116325
15.152,2.17693059628543
15.16,2.25708699902248
15.168,2.33235581622678
15.176,2.41642228739003
15.184,2.50244379276637
15.192,2.58944281524927
15.2,2.67546432062561
15.208,2.75953079178886
15.216,2.841642228739
15.224,2.91788856304985
15.232,2.98826979472141
15.24,3.05376344086022
15.248,3.11241446725318
15.256,3.15542521994135
15.264,3.18768328445748
15.272,3.22091886608016
15.28,3.24926686217009
15.288,3.26783968719453
15.296,3.27370478983382
15.304,3.26686217008798
15.312,3.24731182795699
15.32,3.21603128054741
15.328,3.17595307917889
15.336,3.12903225806452
15.344,3.07820136852395
15.352,3.02639296187683
15.36,2.97849462365591
15.368,2.93157380254154
15.376,2.88074291300098
15.384,2.82795698924731
15.392,2.77517106549365
15.4,2.71945259042033
15.408,2.66177908113392
15.416,2.60508308895406
15.424,2.54740957966764
15.432,2.48875855327468
15.44,2.43010752688172
15.448,2.37243401759531
15.456,2.32160312805474
15.464,2.27565982404692
15.472,2.22678396871945
15.48,2.17595307917889
15.488,2.12609970674487
15.496,2.0772238514174
15.504,2.02834799608993
15.512,1.98044965786901
15.52,1.93450635386119
15.528,1.88954056695992
15.536,1.84652981427175
15.544,1.80547409579668
15.552,1.76735092864125
15.56,1.73998044965787
15.568,1.72336265884653
15.576,1.71358748778104
15.584,1.71554252199413
15.592,1.73020527859238
15.6,1.75855327468231
15.608,1.79960899315738
15.616,1.85043988269795
15.624,1.90713587487781
15.632,1.96578690127077
15.64,2.02248289345064
15.648,2.07624633431085
15.656,2.12121212121212
15.664,2.15933528836755
15.672,2.19745845552297
15.68,2.23655913978495
15.688,2.27272727272727
15.696,2.3049853372434
15.704,2.33431085043988
15.712,2.36070381231672
15.72,2.38318670576735
15.728,2.39784946236559
15.736,2.40175953079179
15.744,2.39491691104594
15.752,2.3782991202346
15.76,2.35679374389052
15.768,2.33040078201369
15.776,2.29423264907136
15.784,2.25317693059629
15.792,2.21114369501466
15.8,2.16813294232649
15.808,2.12609970674487
15.816,2.08602150537634
15.824,2.04789833822092
15.832,2.01075268817204
15.84,1.97360703812317
15.848,1.93646138807429
15.856,1.90420332355816
15.864,1.87292277614858
15.872,1.83675464320626
15.88,1.79765395894428
15.888,1.75757575757576
15.896,1.71847507331378
15.904,1.68230694037146
15.912,1.64613880742913
15.92,1.61094819159335
15.928,1.57771260997067
15.936,1.54545454545455
15.944,1.51515151515152
15.952,1.48680351906158
15.96,1.46627565982405
15.968,1.45063538611926
15.976,1.43108504398827
15.984,1.41055718475073
15.992,1.38905180840665
16.0,1.36559139784946
16.008,1.34115347018573
16.016,1.31573802541544
16.024,1.29032258064516
16.032,1.26588465298143
16.04,1.24242424242424
16.048,1.21994134897361
16.056,1.20430107526882
16.064,1.19257086999022
16.072,1.17497556207234
16.08,1.15542521994135
16.088,1.13391984359726
16.096,1.11045943304008
16.104,1.08504398826979
16.112,1.05962854349951
16.12,1.03519061583578
16.128,1.01564027370479
16.136,1.00488758553275
16.144,1.0058651026393
16.152,1.02248289345064
16.16,1.05376344086022
16.168,1.10068426197458
16.176,1.16813294232649
16.184,1.25610948191593
16.192,1.35972629521017
16.2,1.47311827956989
16.208,1.59335288367546
16.216,1.71456500488759
16.224,1.83577712609971
16.232,1.95698924731183
16.24,2.0772238514174
16.248,2.19452590420332
16.256,2.29423264907136
16.264,2.386119257087
16.272,2.48973607038123
16.28,2.59726295210166
16.288,2.70478983382209
16.296,2.81133919843597
16.304,2.91495601173021
16.312,3.01173020527859
16.32,3.10166177908113
16.328,3.18377321603128
16.336,3.25708699902248
16.344,3.32160312805474
16.352,3.37732160312805
16.36,3.41348973607038
16.368,3.43597262952102
16.376,3.45356793743891
16.384,3.46041055718475
16.392,3.45259042033236
16.4,3.43304007820137
16.408,3.40078201368524
16.416,3.35777126099707
16.424,3.3069403714565
16.432,3.25317693059629
16.44,3.19941348973607
16.448,3.1466275659824
16.456,3.09872922776149
16.464,3.05180840664712
16.472,3.00293255131965
16.48,2.95307917888563
16.488,2.90224828934506
16.496,2.8475073313783
16.504,2.78983382209189
16.512,2.73118279569892
16.52,2.66959921798631
16.528,2.60703812316716
16.536,2.544477028348
16.544,2.48289345063539
16.552,2.35972629521017
16.56,2.21407624633431
16.568,2.12218963831867
16.576,2.05180840664712
16.584,1.99217986314761
16.592,1.93939393939394
16.6,1.89051808406647
16.608,1.84261974584555
16.616,1.79667644183773
16.624,1.75171065493646
16.632,1.70869990224829
16.64,1.66862170087977
16.648,1.62854349951124
16.656,1.59628543499511
16.664,1.56891495601173
16.672,1.54154447702835
16.68,1.51612903225806
16.688,1.49266862170088
16.696,1.47116324535679
16.704,1.45161290322581
16.712,1.43304007820137
16.72,1.41544477028348
16.728,1.39784946236559
16.736,1.3782991202346
16.744,1.35679374389052
16.752,1.33626588465298
16.76,1.32062561094819
16.768,1.3069403714565
16.776,1.29032258064516
16.784,1.27077223851417
16.792,1.25122189638319
16.8,1.2297165200391
16.808,1.20723362658847
16.816,1.18377321603128
16.824,1.15933528836755
16.832,1.13489736070381
16.84,1.10948191593353
16.848,1.0830889540567
16.856,1.06256109481916
16.864,1.04692082111437
16.872,1.03128054740958
16.88,1.02248289345064
16.888,1.02346041055718
16.896,1.04203323558162
16.904,1.08015640273705
16.912,1.13685239491691
16.92,1.21114369501466
16.928,1.3010752688172
16.936,1.39980449657869
16.944,1.50244379276637
16.952,1.59335288367546
16.96,1.67546432062561
16.968,1.7624633431085
16.976,1.85043988269795
16.984,1.93939393939394
16.992,2.02639296187683
17.0,2.11143695014663
17.008,2.19354838709677
17.016,2.27468230694037
17.024,2.35581622678397
17.032,2.43597262952102
17.04,2.51515151515152
17.048,2.59335288367546
17.056,2.65689149560117
17.064,2.71260997067449
17.072,2.772238514174
17.08,2.82991202346041
17.088,2.88367546432063
17.096,2.92961876832845
17.104,2.96676441837732
17.112,2.99217986314761
17.12,3.00488758553275
17.128,3.0058651026393
17.136,2.9941348973607
17.144,2.97165200391007
17.152,2.94330400782014
17.16,2.91006842619746
17.168,2.87585532746823
17.176,2.84066471163245
17.184,2.80547409579668
17.192,2.77126099706745
17.2,2.73704789833822
17.208,2.70087976539589
17.216,2.66471163245357
17.224,2.62658846529814
17.232,2.58651026392962
17.24,2.54643206256109
17.248,2.50635386119257
17.256,2.4692082111437
17.264,2.43304007820137
17.272,2.39393939393939
17.28,2.35386119257087
17.288,2.31182795698925
17.296,2.26783968719453
17.304,2.2238514173998
17.312,2.18084066471163
17.32,2.14173998044966
17.328,2.10654936461388
17.336,2.0733137829912
17.344,2.04007820136852
17.352,2.01270772238514
17.36,1.98729227761486
17.368,1.95894428152493
17.376,1.92961876832845
17.384,1.89931573802542
17.392,1.86803519061584
17.4,1.83675464320626
17.408,1.80547409579668
17.416,1.77321603128055
17.424,1.73998044965787
17.432,1.70674486803519
17.44,1.67253176930596
17.448,1.63636363636364
17.456,1.60410557184751
17.464,1.57282502443793
17.472,1.53567937438905
17.48,1.49462365591398
17.488,1.45161290322581
17.496,1.40664711632454
17.504,1.35874877810362
17.512,1.3108504398827
17.52,1.26490713587488
17.528,1.22287390029326
17.536,1.18377321603128
17.544,1.1505376344086
17.552,1.13196480938416
17.56,1.12609970674487
17.568,1.12903225806452
17.576,1.1466275659824
17.584,1.18084066471163
17.592,1.2316715542522
17.6,1.29521016617791
17.608,1.36852394916911
17.616,1.44672531769306
17.624,1.52883675464321
17.632,1.61290322580645
17.64,1.6969696969697
17.648,1.78201368523949
17.656,1.85532746823069
17.664,1.9227761485826
17.672,1.9960899315738
17.68,2.07038123167155
17.688,2.14565004887586
17.696,2.21896383186706
17.704,2.29032258064516
17.712,2.35874877810362
17.72,2.42228739002933
17.728,2.48191593352884
17.736,2.53763440860215
17.744,2.58651026392962
17.752,2.6197458455523
17.76,2.64320625610948
17.768,2.66373411534702
17.776,2.67741935483871
17.784,2.68035190615836
17.792,2.67350928641251
17.8,2.65786901270772
17.808,2.63734115347019
17.816,2.61290322580645
17.824,2.58748778103617
17.832,2.56109481915934
17.84,2.5347018572825
17.848,2.50537634408602
17.856,2.47605083088954
17.864,2.44868035190616
17.872,2.41935483870968
17.88,2.38709677419355
17.888,2.35483870967742
17.896,2.32160312805474
17.904,2.28739002932551
17.912,2.25317693059629
17.92,2.21896383186706
17.928,2.18377321603128
17.936,2.1485826001955
17.944,2.11436950146628
17.952,2.08504398826979
17.96,2.05669599217986
17.968,2.02443792766373
17.976,1.99120234604106
17.984,1.95698924731183
17.992,1.9227761485826
18.0,1.88954056695992
18.008,1.85434995112414
18.016,1.81915933528837
18.024,1.78592375366569
18.032,1.75366568914956
18.04,1.72140762463343
18.048,1.69208211143695
18.056,1.66959921798631
18.064,1.65298142717498
18.072,1.63929618768328
18.08,1.63147605083089
18.088,1.63245356793744
18.096,1.64125122189638
18.104,1.65689149560117
18.112,1.67839687194526
18.12,1.70283479960899
18.128,1.72922776148583
18.136,1.75562072336266
18.144,1.78103616813294
18.152,1.80254154447703
18.16,1.82013685239492
18.168,1.83773216031281
18.176,1.85434995112414
18.184,1.86705767350929
18.192,1.87585532746823
18.2,1.88074291300098
18.208,1.88074291300098
18.216,1.87683284457478
18.224,1.86803519061584
18.232,1.8533724340176
18.24,1.83479960899316
18.248,1.81329423264907
18.256,1.79472140762463
18.264,1.78005865102639
18.272,1.7663734115347
18.28,1.75171065493646
18.288,1.73802541544477
18.296,1.72434017595308
18.304,1.71065493646139
18.312,1.69599217986315
18.32,1.67937438905181
18.328,1.66177908113392
18.336,1.64222873900293
18.344,1.62072336265885
18.352,1.60215053763441
18.36,1.58651026392962
18.368,1.56891495601173
18.376,1.55034213098729
18.384,1.5307917888563
18.392,1.51026392961877
18.4,1.48973607038123
18.408,1.47018572825024
18.416,1.45161290322581
18.424,1.43304007820137
18.432,1.41544477028348
18.44,1.39784946236559
18.448,1.3802541544477
18.456,1.36656891495601
18.464,1.35581622678397
18.472,1.34213098729228
18.48,1.32844574780059
18.488,1.31378299120235
18.496,1.29716520039101
18.504,1.27859237536657
18.512,1.25806451612903
18.52,1.24046920821114
18.528,1.22482893450635
18.536,1.20918866080156
18.544,1.19452590420332
18.552,1.18377321603128
18.56,1.17497556207234
18.568,1.16226783968719
18.576,1.1466275659824
18.584,1.13098729227761
18.592,1.11534701857282
18.6,1.09579667644184
18.608,1.07429130009775
18.616,1.05767350928641
18.624,1.04692082111437
18.632,1.04692082111437
18.64,1.06060606060606
18.648,1.08406647116325
18.656,1.12023460410557
18.664,1.17399804496579
18.672,1.24340175953079
18.68,1.32355816226784
18.688,1.41055718475073
18.696,1.49951124144673
18.704,1.58748778103617
18.712,1.67253176930596
18.72,1.75366568914956
18.728,1.83284457478006
18.736,1.91006842619746
18.744,1.98435972629521
18.752,2.04887585532747
18.76,2.10850439882698
18.768,2.17497556207234
18.776,2.24242424242424
18.784,2.30791788856305
18.792,2.37047898338221
18.8,2.42913000977517
18.808,2.48289345063539
18.816,2.5307917888563
18.824,2.57086999022483
18.832,2.60312805474096
18.84,2.62756598240469
18.848,2.63929618768328
18.856,2.64125122189638
18.864,2.63538611925709
18.872,2.6197458455523
18.88,2.59628543499511
18.888,2.56695992179863
18.896,2.5366568914956
18.904,2.50537634408602
18.912,2.47409579667644
18.92,2.44379276637341
18.928,2.41251221896383
18.936,2.37927663734115
18.944,2.34604105571848
18.952,2.31378299120235
18.96,2.28250244379277
18.968,2.24731182795699
18.976,2.21016617790811
18.984,2.17008797653959
18.992,2.13000977517107
19.0,2.08993157380254
19.008,2.04887585532747
19.016,2.0058651026393
19.024,1.96383186705767
19.032,1.9227761485826
19.04,1.88367546432063
19.048,1.85043988269795
19.056,1.82013685239492
19.064,1.78592375366569
19.072,1.75171065493646
19.08,1.71749755620723
19.088,1.68328445747801
19.096,1.65102639296188
19.104,1.6177908113392
19.112,1.58553274682307
19.12,1.55327468230694
19.128,1.52101661779081
19.136,1.48778103616813
19.144,1.45650048875855
19.152,1.43304007820137
19.16,1.41251221896383
19.168,1.3880742913001
19.176,1.36363636363636
19.184,1.34017595307918
19.192,1.31867057673509
19.2,1.29716520039101
19.208,1.27565982404692
19.216,1.25513196480938
19.224,1.23460410557185
19.232,1.21603128054741
19.24,1.19843597262952
19.248,1.18572825024438
19.256,1.17595307917889
19.264,1.16226783968719
19.272,1.1466275659824
19.28,1.13098729227761
19.288,1.11632453567937
19.296,1.10263929618768
19.304,1.09188660801564
19.312,1.08211143695015
19.32,1.0713587487781
19.328,1.06158357771261
19.336,1.05083088954057
19.344,1.04007820136852
19.352,1.03323558162268
19.36,1.03030303030303
19.368,1.02737047898338
19.376,1.02834799608993
19.384,1.04007820136852
19.392,1.06451612903226
19.4,1.10361681329423
19.408,1.15738025415445
19.416,1.22287390029326
19.424,1.29716520039101
19.432,1.37732160312805
19.44,1.4594330400782
19.448,1.53176930596285
19.456,1.59824046920821
19.464,1.66959921798631
19.472,1.74291300097752
19.48,1.81720430107527
19.488,1.88758553274682
19.496,1.95601173020528
19.504,2.02248289345064
19.512,2.08797653958944
19.52,2.1524926686217
19.528,2.21309872922776
19.536,2.27077223851417
19.544,2.32551319648094
19.552,2.36656891495601
19.56,2.39882697947214
19.568,2.43108504398827
19.576,2.46041055718475
19.584,2.48289345063539
19.592,2.49657869012708
19.6,2.50146627565982
19.608,2.49853372434018
19.616,2.48680351906158
19.624,2.47018572825024
19.632,2.44965786901271
19.64,2.42815249266862
19.648,2.40762463343109
19.656,2.3880742913001
19.664,2.36754643206256
19.672,2.34604105571848
19.68,2.32258064516129
19.688,2.29716520039101
19.696,2.26881720430108
19.704,2.2375366568915
19.712,2.20332355816227
19.72,2.16911045943304
19.728,2.13391984359726
19.736,2.09970674486804
19.744,2.06549364613881
19.752,2.03616813294233
19.76,2.00879765395894
19.768,1.97751710654936
19.776,1.94428152492669
19.784,1.91202346041056
19.792,1.87976539589443
19.8,1.84848484848485
19.808,1.81720430107527
19.816,1.78690127077224
19.824,1.75659824046921
19.832,1.72629521016618
19.84,1.69794721407625
19.848,1.67448680351906
19.856,1.65493646138807
19.864,1.63245356793744
19.872,1.60703812316716
19.88,1.58064516129032
19.888,1.55425219941349
19.896,1.52785923753666
19.904,1.50048875855327
19.912,1.47311827956989
19.92,1.44868035190616
19.928,1.42521994134897
19.936,1.40371456500489
19.944,1.3822091886608
19.952,1.36461388074291
19.96,1.34995112414467
19.968,1.33235581622678
19.976,1.3147605083089
19.984,1.29521016617791
19.992,1.27468230694037
20.0,1.25415444770283
20.008,1.2355816226784
20.016,1.22189638318671
20.024,1.21407624633431
20.032,1.21309872922776
20.04,1.22482893450635
20.048,1.24633431085044
20.056,1.27859237536657
20.064,1.32453567937439
20.072,1.3822091886608
20.08,1.44965786901271
20.088,1.52394916911046
20.096,1.60019550342131
20.104,1.67546432062561
20.112,1.74975562072336
20.12,1.82306940371456
20.128,1.89638318670577
20.136,1.96969696969697
20.144,2.04301075268817
20.152,2.10752688172043
20.16,2.16520039100684
20.168,2.2297165200391
20.176,2.29716520039101
20.184,2.36461388074291
20.192,2.43010752688172
20.2,2.49071358748778
20.208,2.54838709677419
20.216,2.60215053763441
20.224,2.65298142717498
20.232,2.69794721407625
20.24,2.73509286412512
20.248,2.75855327468231
20.256,2.77126099706745
20.264,2.77908113391984
20.272,2.77810361681329
20.28,2.76735092864125
20.288,2.74877810361681
20.296,2.72531769305963
20.304,2.69990224828934
20.312,2.67253176930596
20.32,2.64516129032258
20.328,2.6197458455523
20.336,2.59335288367546
20.344,2.56500488758553
20.352,2.5366568914956
20.36,2.50928641251222
20.368,2.47800586510264
20.376,2.44379276637341
20.384,2.40762463343109
20.392,2.36852394916911
20.4,2.32844574780059
20.408,2.28934506353861
20.416,2.24926686217009
20.424,2.20723362658847
20.432,2.16520039100684
20.44,2.12414467253177
20.448,2.08895405669599
20.456,2.05669599217986
20.464,2.02248289345064
20.472,1.98826979472141
20.48,1.95210166177908
20.488,1.91495601173021
20.496,1.87878787878788
20.504,1.84261974584555
20.512,1.80742913000978
20.52,1.77517106549365
20.528,1.74877810361681
20.536,1.73020527859238
20.544,1.72238514173998
20.552,1.72336265884653
20.56,1.73313782991202
20.568,1.75366568914956
20.576,1.78494623655914
20.584,1.82502443792766
20.592,1.87194525904203
20.6,1.92179863147605
20.608,1.97360703812317
20.616,2.02443792766373
20.624,2.07429130009775
20.632,2.12316715542522
20.64,2.16911045943304
20.648,2.24144672531769
20.656,2.32746823069404
20.664,2.39296187683284
20.672,2.44672531769306
20.68,2.49364613880743
20.688,2.53567937438905
20.696,2.57282502443793
20.704,2.60312805474096
20.712,2.62463343108504
20.72,2.63538611925709
20.728,2.63343108504399
20.736,2.61876832844575
20.744,2.59726295210166
20.752,2.57184750733138
20.76,2.5405669599218
20.768,2.50733137829912
20.776,2.47507331378299
20.784,2.44770283479961
20.792,2.42326490713587
20.8,2.39784946236559
20.808,2.37145650048876
20.816,2.34408602150538
20.824,2.31573802541544
20.832,2.28445747800587
20.84,2.24926686217009
20.848,2.21700879765396
20.856,2.18475073313783
20.864,2.1466275659824
20.872,2.10654936461388
20.88,2.06744868035191
20.888,2.02639296187683
20.896,1.98338220918866
20.904,1.94037145650049
20.912,1.89833822091887
20.92,1.85826001955034
20.928,1.82013685239492
20.936,1.78396871945259
20.944,1.75268817204301
20.952,1.72531769305963
20.96,1.69599217986315
20.968,1.66471163245357
20.976,1.63245356793744
20.984,1.60215053763441
20.992,1.57380254154448
21.0,1.54643206256109
21.008,1.52003910068426
21.016,1.49560117302053
21.024,1.47311827956989
21.032,1.45063538611926
21.04,1.42717497556207
21.048,1.40957966764418
21.056,1.39491691104594
21.064,1.37634408602151
21.072,1.35386119257087
21.08,1.33040078201369
21.088,1.3069403714565
21.096,1.28250244379277
21.104,1.25806451612903
21.112,1.23460410557185
21.12,1.21603128054741
21.128,1.20821114369501
21.136,1.21798631476051
21.144,1.24144672531769
21.152,1.28152492668622
21.16,1.34408602150538
21.168,1.42521994134897
21.176,1.52101661779081
21.184,1.62658846529814
21.192,1.73802541544477
21.2,1.8494623655914
21.208,1.95894428152493
21.216,2.06744868035191
21.224,2.17497556207234
21.232,2.28152492668622
21.24,2.38905180840665
21.248,2.48093841642229
21.256,2.56500488758553
21.264,2.65982404692082
21.272,2.75855327468231
21.28,2.85630498533724
21.288,2.95112414467253
21.296,3.04301075268817
21.304,3.13000977517107
21.312,3.21114369501466
21.32,3.28641251221896
21.328,3.35483870967742
21.336,3.41446725317693
21.344,3.455522971652
21.352,3.48289345063539
21.36,3.50830889540567
21.368,3.52492668621701
21.376,3.52981427174976
21.384,3.52297165200391
21.392,3.50146627565982
21.4,3.4672531769306
21.408,3.42228739002933
21.416,3.37145650048876
21.424,3.31867057673509
21.432,3.26588465298143
21.44,3.21505376344086
21.448,3.16617790811339
21.456,3.11925708699902
21.464,3.0713587487781
21.472,3.01955034213099
21.48,2.96383186705767
21.488,2.90420332355816
21.496,2.84261974584555
21.504,2.78005865102639
21.512,2.71652003910068
21.52,2.65200391006843
21.528,2.58846529814272
21.536,2.52590420332356
21.544,2.47116324535679
21.552,2.42033235581623
21.56,2.36559139784946
21.568,2.30987292277615
21.576,2.25415444770284
21.584,2.19941348973607
21.592,2.14271749755621
21.6,2.08797653958944
21.608,2.03421309872923
21.616,1.98142717497556
21.624,1.92961876832845
21.632,1.87878787878788
21.64,1.82991202346041
21.648,1.78885630498534
21.656,1.75268817204301
21.664,1.71554252199413
21.672,1.67839687194526
21.68,1.64222873900293
21.688,1.60703812316716
21.696,1.57380254154448
21.704,1.54154447702835
21.712,1.51026392961877
21.72,1.48191593352884
21.728,1.45454545454545
21.736,1.42717497556207
21.744,1.40566959921799
21.752,1.38905180840665
21.76,1.37047898338221
21.768,1.34995112414467
21.776,1.32942326490714
21.784,1.3088954056696
21.792,1.28641251221896
21.8,1.26392961876833
21.808,1.24144672531769
21.816,1.21994134897361
21.824,1.19843597262952
21.832,1.17693059628544
21.84,1.1564027370479
21.848,1.14271749755621
21.856,1.13489736070381
21.864,1.13196480938416
21.872,1.14076246334311
21.88,1.16715542521994
21.888,1.21407624633431
21.896,1.28054740957967
21.904,1.36461388074291
21.912,1.46432062561095
21.92,1.57282502443793
21.928,1.6852394916911
21.936,1.79765395894428
21.944,1.89540566959922
21.952,1.98435972629521
21.96,2.08211143695015
21.968,2.18377321603128
21.976,2.28739002932551
21.984,2.3919843597263
21.992,2.49853372434018
22.0,2.60410557184751
22.008,2.70674486803519
22.016,2.80645161290323
22.024,2.90127077223851
22.032,2.99120234604106
22.04,3.0752688172043
22.048,3.13880742913001
22.056,3.19159335288368
22.064,3.24828934506354
22.072,3.30205278592375
22.08,3.35092864125122
22.088,3.3919843597263
22.096,3.42228739002933
22.104,3.43890518084066
22.112,3.44183773216031
22.12,3.43010752688172
22.128,3.40469208211144
22.136,3.36754643206256
22.144,3.32551319648094
22.152,3.28054740957967
22.16,3.23460410557185
22.168,3.18963831867058
22.176,3.14565004887586
22.184,3.10263929618768
22.192,3.06060606060606
22.2,3.01661779081134
22.208,2.97262952101662
22.216,2.9286412512219
22.224,2.88269794721408
22.232,2.83577712609971
22.24,2.78787878787879
22.248,2.74193548387097
22.256,2.6969696969697
22.264,2.64907135874878
22.272,2.60019550342131
22.28,2.55229716520039
22.288,2.50537634408602
22.296,2.46041055718475
22.304,2.41642228739003
22.312,2.37341153470186
22.32,2.33431085043988
22.328,2.29912023460411
22.336,2.26588465298143
22.344,2.23655913978495
22.352,2.21016617790811
22.36,2.18279569892473
22.368,2.15542521994135
22.376,2.12805474095797
22.384,2.10166177908113
22.392,2.07624633431085
22.4,2.05278592375367
22.408,2.03128054740958
22.416,2.00977517106549
22.424,1.98729227761486
22.432,1.96578690127077
22.44,1.94819159335288
22.448,1.93255131964809
22.456,1.91495601173021
22.464,1.89638318670577
22.472,1.87683284457478
22.48,1.85826001955034
22.488,1.841642228739
22.496,1.82893450635386
22.504,1.81915933528837
22.512,1.81622678396872
22.52,1.82404692082111
22.528,1.8455522971652
22.536,1.88465298142718
22.544,1.930596285435
22.552,1.98533724340176
22.56,2.05865102639296
22.568,2.14565004887586
22.576,2.24046920821114
22.584,2.33724340175953
22.592,2.43304007820137
22.6,2.52785923753666
22.608,2.62267839687195
22.616,2.71554252199413
22.624,2.80547409579668
22.632,2.89345063538612
22.64,2.96578690127077
22.648,3.02932551319648
22.656,3.10166177908113
22.664,3.17790811339198
22.672,3.25219941348974
22.68,3.32160312805474
22.688,3.3880742913001
22.696,3.31573802541544
22.704,3.16911045943304
22.712,3.11534701857282
22.72,3.10361681329423
22.728,3.10850439882698
22.736,3.11534701857282
22.744,3.11436950146628
22.752,3.10459433040078
22.76,3.09090909090909
22.768,3.069403714565
22.776,3.04007820136852
22.784,3.0039100684262
22.792,2.96285434995112
22.8,2.9227761485826
22.808,2.88465298142718
22.816,2.84848484848485
22.824,2.81329423264907
22.832,2.77712609970675
22.84,2.74095796676442
22.848,2.70576735092864
22.856,2.66862170087977
22.864,2.62952101661779
22.872,2.58846529814272
22.88,2.54643206256109
22.888,2.50342130987292
22.896,2.46041055718475
22.904,2.41642228739003
22.912,2.37145650048876
22.92,2.32649071358749
22.928,2.28250244379277
22.936,2.23851417399804
22.944,2.19843597262952
22.952,2.16129032258065
22.96,2.12414467253177
22.968,2.08602150537634
22.976,2.04692082111437
22.984,2.00977517106549
22.992,1.97262952101662
23.0,1.93450635386119
23.008,1.89833822091887
23.016,1.86412512218964
23.024,1.83284457478006
23.032,1.80840664711632
23.04,1.79374389051808
23.048,1.78885630498534
23.056,1.79472140762463
23.064,1.81427174975562
23.072,1.84652981427175
23.08,1.88954056695992
23.088,1.94037145650049
23.096,1.99706744868035
23.104,2.05571847507331
23.112,2.11143695014663
23.12,2.16422287390029
23.128,2.21505376344086
23.136,2.26392961876833
23.144,2.3030303030303
23.152,2.33724340175953
23.16,2.37634408602151
23.168,2.41642228739003
23.176,2.45454545454545
23.184,2.48973607038123
23.192,2.52297165200391
23.2,2.55327468230694
23.208,2.57869012707722
23.216,2.59921798631476
23.224,2.61290322580645
23.232,2.61681329423265
23.24,2.6119257086999
23.248,2.59824046920821
23.256,2.57771260997067
23.264,2.54838709677419
23.272,2.51319648093842
23.28,2.47507331378299
23.288,2.43695014662757
23.296,2.39980449657869
23.304,2.36265884652981
23.312,2.32551319648094
23.32,2.28934506353861
23.328,2.25122189638319
23.336,2.21212121212121
23.344,2.17595307917889
23.352,2.14076246334311
23.36,2.10166177908113
23.368,2.06158357771261
23.376,2.02150537634409
23.384,1.98142717497556
23.392,1.94232649071359
23.4,1.90420332355816
23.408,1.86510263929619
23.416,1.82502443792766
23.424,1.78592375366569
23.432,1.74682306940371
23.44,1.71358748778104
23.448,1.68328445747801
23.456,1.65004887585533
23.464,1.61681329423265
23.472,1.58357771260997
23.48,1.55131964809384
23.488,1.52101661779081
23.496,1.49560117302053
23.504,1.47507331378299
23.512,1.4633431085044
23.52,1.4633431085044
23.528,1.47507331378299
23.536,1.49951124144673
23.544,1.52883675464321
23.552,1.56304985337243
23.56,1.6080156402737
23.568,1.65884652981427
23.576,1.71260997067449
23.584,1.7663734115347
23.592,1.81818181818182
23.6,1.86705767350929
23.608,1.91202346041056
23.616,1.95307917888563
23.624,1.99217986314761
23.632,2.02932551319648
23.64,2.05962854349951
23.648,2.0830889540567
23.656,2.10850439882698
23.664,2.13196480938416
23.672,2.14956011730205
23.68,2.1603128054741
23.688,2.16226783968719
23.696,2.15542521994135
23.704,2.13782991202346
23.712,2.11241446725318
23.72,2.0811339198436
23.728,2.04594330400782
23.736,2.00879765395894
23.744,1.97458455522972
23.752,1.94232649071359
23.76,1.90909090909091
23.768,1.87585532746823
23.776,1.84066471163245
23.784,1.80547409579668
23.792,1.76930596285435
23.8,1.73118279569892
23.808,1.69208211143695
23.816,1.65102639296188
23.824,1.60703812316716
23.832,1.56304985337243
23.84,1.52492668621701
23.848,1.48973607038123
23.856,1.44965786901271
23.864,1.40762463343109
23.872,1.36656891495601
23.88,1.32942326490714
23.888,1.29618768328446
23.896,1.26490713587488
23.904,1.23460410557185
23.912,1.20430107526882
23.92,1.17399804496579
23.928,1.14369501466276
23.936,1.11436950146628
23.944,1.09286412512219
23.952,1.07624633431085
23.96,1.05669599217986
23.968,1.03616813294233
23.976,1.01759530791789
23.984,1.00097751710655
23.992,0.98533724340176
24.0,0.972629521016618
24.008,0.961876832844575
24.016,0.953079178885631
24.024,0.945259042033236
24.032,0.93841642228739
24.04,0.935483870967742
24.048,0.935483870967742
24.056,0.931573802541544
24.064,0.926686217008798
24.072,0.921798631476051
24.08,0.918866080156403
24.088,0.916911045943304
24.096,0.915933528836755
24.104,0.915933528836755
24.112,0.915933528836755
24.12,0.915933528836755
24.128,0.915933528836755
24.136,0.918866080156403
24.144,0.92375366568915
24.152,0.926686217008798
24.16,0.929618768328446
24.168,0.930596285434995
24.176,0.931573802541544
24.184,0.931573802541544
24.192,0.931573802541544
24.2,0.932551319648094
24.208,0.936461388074291
24.216,0.947214076246334
24.224,0.96969696969697
24.232,1.00684261974585
24.24,1.05278592375367
24.248,1.11045943304008
24.256,1.18670576735093
24.264,1.27565982404692
24.272,1.37438905180841
24.28,1.47702834799609
24.288,1.57869012707722
24.296,1.67741935483871
24.304,1.77321603128055
24.312,1.86314760508309
24.32,1.94721407624633
24.328,2.02541544477028
24.336,2.08993157380254
24.344,2.1466275659824
24.352,2.20723362658847
24.36,2.26686217008798
24.368,2.32453567937439
24.376,2.3782991202346
24.384,2.42717497556207
24.392,2.4692082111437
24.4,2.50537634408602
24.408,2.5347018572825
24.416,2.55718475073314
24.424,2.57086999022483
24.432,2.57673509286413
24.44,2.57086999022483
24.448,2.55522971652004
24.456,2.5307917888563
24.464,2.49657869012708
24.472,2.45650048875855
24.48,2.41055718475073
24.488,2.36265884652981
24.496,2.3147605083089
24.504,2.26588465298143
24.512,2.21798631476051
24.52,2.17106549364614
24.528,2.12512218963832
24.536,2.08504398826979
24.544,2.04789833822092
24.552,2.00782013685239
24.56,1.96480938416422
24.568,1.9208211143695
24.576,1.87781036168133
24.584,1.83675464320626
24.592,1.79569892473118
24.6,1.75464320625611
24.608,1.71358748778104
24.616,1.67350928641251
24.624,1.63538611925709
24.632,1.59921798631476
24.64,1.56793743890518
24.648,1.5386119257087
24.656,1.50635386119257
24.664,1.47214076246334
24.672,1.43695014662757
24.68,1.40273704789834
24.688,1.36950146627566
24.696,1.33528836754643
24.704,1.30205278592375
24.712,1.27077223851417
24.72,1.24046920821114
24.728,1.21114369501466
24.736,1.18963831867058
24.744,1.18768328445748
24.752,1.18963831867058
24.76,1.17986314760508
24.768,1.16520039100684
24.776,1.1485826001955
24.784,1.12903225806452
24.792,1.10948191593353
24.8,1.08895405669599
24.808,1.06842619745846
24.816,1.04789833822092
24.824,1.02737047898338
24.832,1.0058651026393
24.84,0.991202346041056
24.848,0.979472140762463
24.856,0.964809384164223
24.864,0.947214076246334
24.872,0.928641251221896
24.88,0.909090909090909
24.888,0.890518084066471
24.896,0.874877810361681
24.904,0.864125122189638
24.912,0.860215053763441
24.92,0.867057673509286
24.928,0.884652981427175
24.936,0.912023460410557
24.944,0.949169110459433
24.952,0.997067448680352
24.96,1.05278592375367
24.968,1.11339198435973
24.976,1.17595307917889
24.984,1.2375366568915
24.992,1.29716520039101
25.0,1.35190615835777
25.008,1.40273704789834
25.016,1.44965786901271
25.024,1.49364613880743
25.032,1.5366568914956
25.04,1.57282502443793
25.048,1.60508308895406
25.056,1.63929618768328
25.064,1.67350928641251
25.072,1.70576735092864
25.08,1.73802541544477
25.088,1.76735092864125
25.096,1.79178885630499
25.104,1.81036168132942
25.112,1.82209188660802
25.12,1.82697947214076
25.128,1.82502443792766
25.136,1.81818181818182
25.144,1.80840664711632
25.152,1.79472140762463
25.16,1.77908113391984
25.168,1.7624633431085
25.176,1.74584555229717
25.184,1.72825024437928
25.192,1.71163245356794
25.2,1.69599217986315
25.208,1.68035190615836
25.216,1.66373411534702
25.224,1.64516129032258
25.232,1.62658846529814
25.24,1.61094819159335
25.248,1.59530791788856
25.256,1.57478005865103
25.264,1.55327468230694
25.272,1.5307917888563
25.28,1.50830889540567
25.288,1.48484848484848
25.296,1.4613880742913
25.304,1.43695014662757
25.312,1.41348973607038
25.32,1.3900293255132
25.328,1.36656891495601
25.336,1.34897360703812
25.344,1.33431085043988
25.352,1.31671554252199
25.36,1.29814271749756
25.368,1.27859237536657
25.376,1.26001955034213
25.384,1.24535679374389
25.392,1.2316715542522
25.4,1.21896383186706
25.408,1.20723362658847
25.416,1.19648093841642
25.424,1.18866080156403
25.432,1.18181818181818
25.44,1.17790811339198
25.448,1.17595307917889
25.456,1.17399804496579
25.464,1.17497556207234
25.472,1.18084066471163
25.48,1.19257086999022
25.488,1.21016617790811
25.496,1.23460410557185
25.504,1.26392961876833
25.512,1.29716520039101
25.52,1.33137829912023
25.528,1.36656891495601
25.536,1.39784946236559
25.544,1.42717497556207
25.552,1.4574780058651
25.56,1.48875855327468
25.568,1.51906158357771
25.576,1.54936461388074
25.584,1.57966764418377
25.592,1.60899315738025
25.6,1.63734115347019
25.608,1.66275659824047
25.616,1.68426197458456
25.624,1.6989247311828
25.632,1.70772238514174
25.64,1.71163245356794
25.648,1.71065493646139
25.656,1.70576735092864
25.664,1.6989247311828
25.672,1.69208211143695
25.68,1.68621700879765
25.688,1.68132942326491
25.696,1.67741935483871
25.704,1.67448680351906
25.712,1.66959921798631
25.72,1.66275659824047
25.728,1.65395894428153
25.736,1.64418377321603
25.744,1.63440860215054
25.752,1.62267839687195
25.76,1.61094819159335
25.768,1.59921798631476
25.776,1.58748778103617
25.784,1.57771260997067
25.792,1.56989247311828
25.8,1.56402737047898
25.808,1.56207233626588
25.816,1.56304985337243
25.824,1.56695992179863
25.832,1.57282502443793
25.84,1.58064516129032
25.848,1.59042033235582
25.856,1.60117302052786
25.864,1.613880742913
25.872,1.62561094819159
25.88,1.63636363636364
25.888,1.64613880742913
25.896,1.65591397849462
25.904,1.66471163245357
25.912,1.67350928641251
25.92,1.68230694037146
25.928,1.6891495601173
25.936,1.6950146627566
25.944,1.69990224828935
25.952,1.70576735092864
25.96,1.71163245356794
25.968,1.71749755620723
25.976,1.72238514173998
25.984,1.72727272727273
25.992,1.73118279569892
26.0,1.73313782991202
26.008,1.73411534701857
26.016,1.73411534701857
26.024,1.73411534701857
26.032,1.73411534701857
26.04,1.73411534701857
26.048,1.73411534701857
26.056,1.73411534701857
26.064,1.73313782991202
26.072,1.73118279569892
26.08,1.72727272727273
26.088,1.72238514173998
26.096,1.71847507331378
26.104,1.71554252199413
26.112,1.71163245356794
26.12,1.70674486803519
26.128,1.70185728250244
26.136,1.6989247311828
26.144,1.69794721407625
26.152,1.6989247311828
26.16,1.70381231671554
26.168,1.71847507331378
26.176,1.74486803519062
26.184,1.78396871945259
26.192,1.83382209188661
26.2,1.89051808406647
26.208,1.95307917888563
26.216,2.01661779081134
26.224,2.0772238514174
26.232,2.12609970674487
26.24,2.16715542521994
26.248,2.21212121212121
26.256,2.25806451612903
26.264,2.30400782013685
26.272,2.34701857282502
26.28,2.38709677419355
26.288,2.42521994134897
26.296,2.46041055718475
26.304,2.49169110459433
26.312,2.51808406647116
26.32,2.5405669599218
26.328,2.55718475073314
26.336,2.56500488758553
26.344,2.56500488758553
26.352,2.56109481915934
26.36,2.55229716520039
26.368,2.5366568914956
26.376,2.51515151515152
26.384,2.48778103616813
26.392,2.45650048875855
26.4,2.42326490713587
26.408,2.38905180840665
26.416,2.35386119257087
26.424,2.31867057673509
26.432,2.28641251221896
26.44,2.25610948191593
26.448,2.22287390029325
26.456,2.18768328445748
26.464,2.14956011730205
26.472,2.11045943304008
26.48,2.069403714565
26.488,2.02639296187683
26.496,1.98240469208211
26.504,1.93841642228739
26.512,1.89540566959922
26.52,1.8533724340176
26.528,1.81231671554252
26.536,1.77712609970674
26.544,1.74486803519062
26.552,1.70967741935484
26.56,1.67253176930596
26.568,1.63636363636364
26.576,1.60312805474096
26.584,1.57184750733138
26.592,1.54154447702835
26.6,1.51319648093842
26.608,1.48582600195503
26.616,1.46041055718475
26.624,1.43499511241447
26.632,1.41544477028348
26.64,1.39784946236559
26.648,1.37732160312805
26.656,1.35581622678397
26.664,1.33626588465298
26.672,1.31671554252199
26.68,1.29814271749756
26.688,1.28054740957967
26.696,1.26392961876833
26.704,1.25024437927664
26.712,1.2375366568915
26.72,1.2258064516129
26.728,1.21603128054741
26.736,1.21212121212121
26.744,1.21212121212121
26.752,1.21212121212121
26.76,1.21212121212121
26.768,1.21309872922776
26.776,1.21505376344086
26.784,1.21700879765396
26.792,1.27077223851417
26.8,1.34995112414467
26.808,1.3919843597263
26.816,1.41642228739003
26.824,1.43206256109482
26.832,1.44574780058651
26.84,1.4633431085044
26.848,1.48778103616813
26.856,1.52199413489736
26.864,1.56793743890518
26.872,1.62561094819159
26.88,1.69403714565005
26.888,1.77126099706745
26.896,1.85434995112414
26.904,1.94134897360704
26.912,2.03030303030303
26.92,2.12023460410557
26.928,2.20918866080156
26.936,2.28445747800587
26.944,2.35190615835777
26.952,2.42717497556207
26.96,2.50537634408602
26.968,2.58748778103617
26.976,2.67155425219941
26.984,2.75757575757576
26.992,2.84457478005865
27.0,2.9286412512219
27.008,3.00879765395894
27.016,3.08504398826979
27.024,3.15542521994135
27.032,3.20527859237537
27.04,3.24046920821114
27.048,3.27565982404692
27.056,3.3069403714565
27.064,3.33235581622678
27.072,3.35092864125122
27.08,3.36363636363636
27.088,3.37145650048876
27.096,3.37536656891496
27.104,3.37536656891496
27.112,3.37243401759531
27.12,3.36559139784946
27.128,3.35483870967742
27.136,3.33822091886608
27.144,3.31573802541544
27.152,3.29227761485826
27.16,3.26588465298143
27.168,3.23655913978495
27.176,3.20723362658847
27.184,3.17693059628543
27.192,3.1466275659824
27.2,3.11436950146628
27.208,3.08211143695015
27.216,3.04985337243402
27.224,3.01564027370479
27.232,2.98142717497556
27.24,2.94721407624633
27.248,2.91104594330401
27.256,2.87292277614858
27.264,2.83479960899316
27.272,2.79765395894428
27.28,2.75953079178886
27.288,2.72238514173998
27.296,2.6852394916911
27.304,2.64809384164223
27.312,2.6119257086999
27.32,2.57673509286413
27.328,2.54154447702835
27.336,2.51026392961877
27.344,2.47996089931574
27.352,2.44868035190616
27.36,2.41739980449658
27.368,2.38709677419355
27.376,2.35483870967742
27.384,2.32062561094819
27.392,2.28641251221896
27.4,2.25219941348974
27.408,2.21994134897361
27.416,2.19257086999022
27.424,2.16617790811339
27.432,2.14467253176931
27.44,2.12707722385142
27.448,2.11045943304008
27.456,2.09677419354839
27.464,2.08797653958944
27.472,2.0830889540567
27.48,2.08406647116325
27.488,2.09286412512219
27.496,2.11241446725318
27.504,2.14565004887586
27.512,2.18963831867058
27.52,2.24242424242424
27.528,2.3030303030303
27.536,2.35777126099707
27.544,2.40957966764418
27.552,2.46627565982405
27.56,2.52394916911046
27.568,2.58162267839687
27.576,2.63929618768328
27.584,2.69403714565005
27.592,2.74877810361681
27.6,2.80254154447703
27.608,2.8533724340176
27.616,2.90224828934506
27.624,2.94916911045943
27.632,2.98533724340176
27.64,3.01564027370479
27.648,3.05083088954057
27.656,3.08699902248289
27.664,3.12121212121212
27.672,3.1505376344086
27.68,3.17595307917889
27.688,3.19452590420332
27.696,3.20527859237537
27.704,3.20821114369501
27.712,3.20234604105572
27.72,3.18768328445748
27.728,3.16617790811339
27.736,3.14076246334311
27.744,3.10654936461388
27.752,3.07624633431085
27.76,3.05278592375367
27.768,3.02639296187683
27.776,2.99706744868035
27.784,2.96871945259042
27.792,2.93841642228739
27.8,2.90615835777126
27.808,2.87390029325513
27.816,2.841642228739
27.824,2.80840664711632
27.832,2.7761485826002
27.84,2.74486803519062
27.848,2.71163245356794
27.856,2.67839687194526
27.864,2.64516129032258
27.872,2.6119257086999
27.88,2.57575757575758
27.888,2.5366568914956
27.896,2.49657869012708
27.904,2.45845552297165
27.912,2.42424242424242
27.92,2.39393939393939
27.928,2.36852394916911
27.936,2.34506353861193
27.944,2.32258064516129
27.952,2.3010752688172
27.96,2.27956989247312
27.968,2.26001955034213
27.976,2.24242424242424
27.984,2.227761485826
27.992,2.21798631476051
28.0,2.21505376344086
28.008,2.22091886608016
28.016,2.23460410557185
28.024,2.25610948191593
28.032,2.27663734115347
28.04,2.29716520039101
28.048,2.32258064516129
28.056,2.34799608993157
28.064,2.37145650048876
28.072,2.39393939393939
28.08,2.41544477028348
28.088,2.43597262952102
28.096,2.45650048875855
28.104,2.47605083088954
28.112,2.49169110459433
28.12,2.50146627565982
28.128,2.50439882697947
28.136,2.49951124144673
28.144,2.48778103616813
28.152,2.4672531769306
28.16,2.43988269794721
28.168,2.40860215053763
28.176,2.37341153470186
28.184,2.33919843597263
28.192,2.30791788856305
28.2,2.27859237536657
28.208,2.25024437927664
28.216,2.22287390029325
28.224,2.19745845552297
28.232,2.17497556207234
28.24,2.1524926686217
28.248,2.12512218963832
28.256,2.09384164222874
28.264,2.05767350928641
28.272,2.01661779081134
28.28,1.97067448680352
28.288,1.9188660801564
28.296,1.86217008797654
28.304,1.80058651026393
28.312,1.73509286412512
28.32,1.66471163245357
28.328,1.60215053763441
28.336,1.54154447702835
28.344,1.4672531769306
28.352,1.38514173998045
28.36,1.29814271749756
28.368,1.21212121212121
28.376,1.13000977517107
28.384,1.05083088954057
28.392,0.977517106549365
28.4,0.911045943304008
28.408,0.852394916911046
28.416,0.801564027370479
28.424,0.756598240469208
28.432,0.725317693059629
28.44,0.699902248289345
28.448,0.665689149560117
28.456,0.626588465298143
28.464,0.583577712609971
28.472,0.537634408602151
28.48,0.488758553274682
28.488,0.440860215053763
28.496,0.395894428152493
28.504,0.35386119257087
28.512,0.318670576735093
28.52,0.290322580645161
28.528,0.27761485826002
28.536,0.272727272727273
28.544,0.263929618768328
28.552,0.255131964809384
28.56,0.24633431085044
28.568,0.239491691104594
28.576,0.232649071358749
28.584,0.225806451612903
28.592,0.219941348973607
28.6,0.21603128054741
28.608,0.212121212121212
28.616,0.208211143695015
28.624,0.206256109481916
28.632,0.214076246334311
28.64,0.226783968719453
28.648,0.234604105571848
28.656,0.240469208211144
28.664,0.247311827956989
28.672,0.255131964809384
28.68,0.263929618768328
28.688,0.273704789833822
28.696,0.284457478005865
28.704,0.296187683284457
28.712,0.3069403714565
28.72,0.318670576735093
28.728,0.335288367546432
28.736,0.352883675464321
28.744,0.364613880742913
28.752,0.374389051808407
28.76,0.382209188660802
28.768,0.387096774193548
28.776,0.389051808406647
28.784,0.390029325513196
28.792,0.391006842619746
28.8,0.391006842619746
28.808,0.390029325513196
28.816,0.388074291300098
28.824,0.38514173998045
28.832,0.388074291300098
28.84,0.574780058651026
28.848,0.847507331378299
28.856,0.983382209188661
28.864,1.05083088954057
28.872,1.08504398826979
28.88,1.10166177908113
28.888,1.11045943304008
28.896,1.11436950146628
28.904,1.11632453567937
28.912,1.11730205278592
28.92,1.11827956989247
28.928,1.12218963831867
28.936,1.12805474095797
28.944,1.13000977517107
28.952,1.12903225806452
28.96,1.12903225806452
28.968,1.12903225806452
28.976,1.12805474095797
28.984,1.12707722385142
28.992,1.12609970674487
29.0,1.12512218963832
29.008,1.12512218963832
29.016,1.12512218963832
29.024,1.12609970674487
29.032,1.13098729227761
29.04,1.13880742913001
29.048,1.14369501466276
29.056,1.1466275659824
29.064,1.14956011730205
29.072,1.1524926686217
29.08,1.15542521994135
29.088,1.1603128054741
29.096,1.16617790811339
29.104,1.17302052785924
29.112,1.18084066471163
29.12,1.18866080156403
29.128,1.19941348973607
29.136,1.21212121212121
29.144,1.22482893450635
29.152,1.23655913978495
29.16,1.24926686217009
29.168,1.26295210166178
29.176,1.27761485826002
29.184,1.29227761485826
29.192,1.3069403714565
29.2,1.32062561094819
29.208,1.33431085043988
29.216,1.34604105571847
29.224,1.35679374389052
29.232,1.36754643206256
29.24,1.37732160312805
29.248,1.3841642228739
29.256,1.38905180840665
29.264,1.3919843597263
29.272,1.39491691104594
29.28,1.40078201368524
29.288,1.41153470185728
29.296,1.42913000977517
29.304,1.45650048875855
29.312,1.49657869012708
29.32,1.54740957966764
29.328,1.60117302052786
29.336,1.65786901270772
29.344,1.72434017595308
29.352,1.79667644183773
29.36,1.86999022482893
29.368,1.94134897360704
29.376,2.01173020527859
29.384,2.08015640273705
29.392,2.14760508308895
29.4,2.21505376344086
29.408,2.28152492668622
29.416,2.34799608993157
29.424,2.41446725317693
29.432,2.47116324535679
29.44,2.52101661779081
29.448,2.57575757575758
29.456,2.63147605083089
29.464,2.68621700879765
29.472,2.73900293255132
29.48,2.78787878787879
29.488,2.83186705767351
29.496,2.86999022482893
29.504,2.90029325513196
29.512,2.9247311827957
29.52,2.94232649071359
29.528,2.94916911045943
29.536,2.94916911045943
29.544,2.94721407624633
29.552,2.94330400782014
29.56,2.93450635386119
29.568,2.92570869990225
29.576,2.9188660801564
29.584,2.91006842619746
29.592,2.89540566959922
29.6,2.88172043010753
29.608,2.87096774193548
29.616,2.85728250244379
29.624,2.83382209188661
29.632,2.80547409579668
29.64,2.78494623655914
29.648,2.76148582600196
29.656,2.72825024437928
29.664,2.70478983382209
29.672,2.67839687194526
29.68,2.64222873900293
29.688,2.6080156402737
29.696,2.58357771260997
29.704,2.55718475073314
29.712,2.52199413489736
29.72,2.49266862170088
29.728,2.4672531769306
29.736,2.44086021505376
29.744,2.41544477028348
29.752,2.39100684261975
29.76,2.36656891495601
29.768,2.34115347018573
29.776,2.31573802541544
29.784,2.29032258064516
29.792,2.26588465298143
29.8,2.24046920821114
29.808,2.21505376344086
29.816,2.19257086999022
29.824,2.17106549364614
29.832,2.1466275659824
29.84,2.12218963831867
29.848,2.09775171065494
29.856,2.07429130009775
29.864,2.05180840664712
29.872,2.02932551319648
29.88,2.00782013685239
29.888,1.98826979472141
29.896,1.96871945259042
29.904,1.94916911045943
29.912,1.930596285435
29.92,1.91593352883675
29.928,1.90322580645161
29.936,1.88856304985337
29.944,1.87292277614858
29.952,1.85826001955034
29.96,1.8475073313783
29.968,1.841642228739
29.976,1.84261974584555
29.984,1.8514173998045
29.992,1.86901270772239
30.0,1.89638318670577
30.008,1.930596285435
30.016,1.96480938416422
30.024,1.99902248289345
30.032,2.03910068426197
30.04,2.0811339198436
30.048,2.12316715542522
30.056,2.16520039100684
30.064,2.20625610948192
30.072,2.24633431085044
30.08,2.28543499511241
30.088,2.32258064516129
30.096,2.35874877810362
30.104,2.39491691104594
30.112,2.42913000977517
30.12,2.4574780058651
30.128,2.48191593352884
30.136,2.50928641251222
30.144,2.5366568914956
30.152,2.56304985337243
30.16,2.58651026392962
30.168,2.60606060606061
30.176,2.6217008797654
30.184,2.63245356793744
30.192,2.63734115347019
30.2,2.63538611925709
30.208,2.62658846529814
30.216,2.61290322580645
30.224,2.59628543499511
30.232,2.57771260997067
30.24,2.55816226783969
30.248,2.53958944281525
30.256,2.52297165200391
30.264,2.50733137829912
30.272,2.49169110459433
30.28,2.47702834799609
30.288,2.4613880742913
30.296,2.44574780058651
30.304,2.42913000977517
30.312,2.41055718475073
30.32,2.39296187683284
30.328,2.37634408602151
30.336,2.35777126099707
30.344,2.33919843597263
30.352,2.32062561094819
30.36,2.30009775171066
30.368,2.27956989247312
30.376,2.26001955034213
30.384,2.23949169110459
30.392,2.21896383186706
30.4,2.19843597262952
30.408,2.17790811339198
30.416,2.1603128054741
30.424,2.14467253176931
30.432,2.12805474095797
30.44,2.11143695014663
30.448,2.09384164222874
30.456,2.07624633431085
30.464,2.05962854349951
30.472,2.04496578690127
30.48,2.03128054740958
30.488,2.02150537634409
30.496,2.01564027370479
30.504,2.01368523949169
30.512,2.01564027370479
30.52,2.02052785923754
30.528,2.02639296187683
30.536,2.03421309872923
30.544,2.04203323558162
30.552,2.04985337243402
30.56,2.05571847507331
30.568,2.05865102639296
30.576,2.05767350928641
30.584,2.05474095796676
30.592,2.04985337243402
30.6,2.04105571847507
30.608,2.03030303030303
30.616,2.01857282502444
30.624,2.00684261974585
30.632,1.99315738025415
30.64,1.97751710654936
30.648,1.96285434995112
30.656,1.94819159335288
30.664,1.93548387096774
30.672,1.9247311827957
30.68,1.91495601173021
30.688,1.90713587487781
30.696,1.89931573802542
30.704,1.89149560117302
30.712,1.88269794721408
30.72,1.87487781036168
30.728,1.86803519061584
30.736,1.85923753665689
30.744,1.8494623655914
30.752,1.8396871945259
30.76,1.82991202346041
30.768,1.82013685239492
30.776,1.81036168132942
30.784,1.80058651026393
30.792,1.79178885630499
30.8,1.78299120234604
30.808,1.77321603128055
30.816,1.7663734115347
30.824,1.76050830889541
30.832,1.75171065493646
30.84,1.74193548387097
30.848,1.73216031280547
30.856,1.72336265884653
30.864,1.71456500488759
30.872,1.70674486803519
30.88,1.68035190615836
30.888,1.64613880742913
30.896,1.62561094819159
30.904,1.6119257086999
30.912,1.60117302052786
30.92,1.59530791788856
30.928,1.59139784946237
30.936,1.58651026392962
30.944,1.58260019550342
30.952,1.57771260997067
30.96,1.57282502443793
30.968,1.56793743890518
30.976,1.56304985337243
30.984,1.55913978494624
30.992,1.55425219941349
31.0,1.54936461388074
31.008,1.5425219941349
31.016,1.5386119257087
31.024,1.53763440860215
31.032,1.5366568914956
31.04,1.53958944281525
31.048,1.55131964809384
31.056,1.57478005865103
31.064,1.6099706744868
31.072,1.65689149560117
31.08,1.71358748778104
31.088,1.77712609970674
31.096,1.84457478005865
31.104,1.91202346041056
31.112,1.97849462365591
31.12,2.03519061583578
31.128,2.08504398826979
31.136,2.13880742913001
31.144,2.19354838709677
31.152,2.24828934506354
31.16,2.30205278592375
31.168,2.35483870967742
31.176,2.40664711632454
31.184,2.45650048875855
31.192,2.50439882697947
31.2,2.54936461388074
31.208,2.59237536656891
31.216,2.62658846529814
31.224,2.65591397849462
31.232,2.68621700879765
31.24,2.71358748778104
31.248,2.73607038123167
31.256,2.75171065493646
31.264,2.76148582600196
31.272,2.7644183773216
31.28,2.76050830889541
31.288,2.75073313782991
31.296,2.73900293255132
31.304,2.72629521016618
31.312,2.71260997067449
31.32,2.6969696969697
31.328,2.68230694037146
31.336,2.66666666666667
31.344,2.65102639296188
31.352,2.63440860215054
31.36,2.6177908113392
31.368,2.59921798631476
31.376,2.57966764418377
31.384,2.55816226783969
31.392,2.5347018572825
31.4,2.51026392961877
31.408,2.48484848484848
31.416,2.4613880742913
31.424,2.43792766373412
31.432,2.41251221896383
31.44,2.38709677419355
31.448,2.36168132942327
31.456,2.33626588465298
31.464,2.31182795698925
31.472,2.28739002932551
31.48,2.26392961876833
31.488,2.24046920821114
31.496,2.21798631476051
31.504,2.19452590420332
31.512,2.17399804496579
31.52,2.1564027370479
31.528,2.13782991202346
31.536,2.11925708699902
31.544,2.10166177908113
31.552,2.08504398826979
31.56,2.06842619745846
31.568,2.05180840664712
31.576,2.03616813294233
31.584,2.01955034213099
31.592,2.00293255131965
31.6,1.98631476050831
31.608,1.97067448680352
31.616,1.95796676441838
31.624,1.94721407624633
31.632,1.93646138807429
31.64,1.9247311827957
31.648,1.91300097751711
31.656,1.90127077223851
31.664,1.88856304985337
31.672,1.87683284457478
31.68,1.86608015640274
31.688,1.85630498533724
31.696,1.84652981427175
31.704,1.83479960899316
31.712,1.82502443792766
31.72,1.81622678396872
31.728,1.80645161290323
31.736,1.79765395894428
31.744,1.79178885630499
31.752,1.79081133919844
31.76,1.79765395894428
31.768,1.81427174975562
31.776,1.84261974584555
31.784,1.88172043010753
31.792,1.92961876832845
31.8,1.98435972629521
31.808,2.04301075268817
31.816,2.09384164222874
31.824,2.14076246334311
31.832,2.19354838709677
31.84,2.24731182795699
31.848,2.3010752688172
31.856,2.35679374389052
31.864,2.41153470185728
31.872,2.4652981427175
31.88,2.51710654936461
31.888,2.56793743890518
31.896,2.61681329423265
31.904,2.66373411534702
31.912,2.69990224828934
31.92,2.73020527859238
31.928,2.76539589442815
31.936,2.80058651026393
31.944,2.83382209188661
31.952,2.86412512218964
31.96,2.89051808406647
31.968,2.91104594330401
31.976,2.92570869990225
31.984,2.93255131964809
31.992,2.93157380254154
32.0,2.92179863147605
32.008,2.90518084066471
32.016,2.88367546432063
32.024,2.85923753665689
32.032,2.83284457478006
32.04,2.80645161290323
32.048,2.78005865102639
32.056,2.75464320625611
32.064,2.73020527859238
32.072,2.70674486803519
32.08,2.68328445747801
32.088,2.65884652981427
32.096,2.63343108504399
32.104,2.60703812316716
32.112,2.58064516129032
32.12,2.55425219941349
32.128,2.52590420332356
32.136,2.49560117302053
32.144,2.46432062561095
32.152,2.43206256109482
32.16,2.39980449657869
32.168,2.36852394916911
32.176,2.33822091886608
32.184,2.30987292277615
32.192,2.28152492668622
32.2,2.25415444770284
32.208,2.22678396871945
32.216,2.20332355816227
32.224,2.18279569892473
32.232,2.16226783968719
32.24,2.14173998044966
32.248,2.12023460410557
32.256,2.09872922776149
32.264,2.0772238514174
32.272,2.05571847507331
32.28,2.03421309872923
32.288,2.01270772238514
32.296,1.99217986314761
32.304,1.97067448680352
32.312,1.95210166177908
32.32,1.93646138807429
32.328,1.91788856304985
32.336,1.89833822091887
32.344,1.88074291300098
32.352,1.86412512218964
32.36,1.84848484848485
32.368,1.83382209188661
32.376,1.81915933528837
32.384,1.80547409579668
32.392,1.79374389051808
32.4,1.78690127077224
32.408,1.78690127077224
32.416,1.79374389051808
32.424,1.80742913000978
32.432,1.83088954056696
32.44,1.86608015640274
32.448,1.90909090909091
32.456,1.95894428152493
32.464,2.01270772238514
32.472,2.06744868035191
32.48,2.12218963831867
32.488,2.17595307917889
32.496,2.227761485826
32.504,2.27956989247312
32.512,2.32355816226784
32.52,2.36265884652981
32.528,2.40664711632454
32.536,2.45259042033236
32.544,2.49853372434018
32.552,2.544477028348
32.56,2.58944281524927
32.568,2.63343108504399
32.576,2.67448680351906
32.584,2.71163245356794
32.592,2.74486803519062
32.6,2.77517106549365
32.608,2.80058651026393
32.616,2.81818181818182
32.624,2.82991202346041
32.632,2.8396871945259
32.64,2.84652981427175
32.648,2.84652981427175
32.656,2.83773216031281
32.664,2.82209188660802
32.672,2.79960899315738
32.68,2.77321603128055
32.688,2.74291300097752
32.696,2.71260997067449
32.704,2.68230694037146
32.712,2.65395894428152
32.72,2.62658846529814
32.728,2.59824046920821
32.736,2.56793743890518
32.744,2.5366568914956
32.752,2.50537634408602
32.76,2.47214076246334
32.768,2.43890518084066
32.776,2.40469208211144
32.784,2.36950146627566
32.792,2.33333333333333
32.8,2.29618768328446
32.808,2.26001955034213
32.816,2.22873900293255
32.824,2.19941348973607
32.832,2.16715542521994
32.84,2.13489736070381
32.848,2.10263929618768
32.856,2.0713587487781
32.864,2.04007820136852
32.872,2.00977517106549
32.88,1.97947214076246
32.888,1.95112414467253
32.896,1.92375366568915
32.904,1.90029325513196
32.912,1.88367546432063
32.92,1.87292277614858
32.928,1.76930596285435
32.936,1.62365591397849
32.944,1.56109481915934
32.952,1.54349951124145
32.96,1.55131964809384
32.968,1.57086999022483
32.976,1.59433040078201
32.984,1.6177908113392
32.992,1.64027370478983
33.0,1.65982404692082
33.008,1.67546432062561
33.016,1.6871945259042
33.024,1.69403714565005
33.032,1.69990224828935
33.04,1.70381231671554
33.048,1.70478983382209
33.056,1.70185728250244
33.064,1.6950146627566
33.072,1.68426197458456
33.08,1.66862170087977
33.088,1.64809384164223
33.096,1.62365591397849
33.104,1.59824046920821
33.112,1.57771260997067
33.12,1.56011730205279
33.128,1.53958944281525
33.136,1.51906158357771
33.144,1.49951124144673
33.152,1.48191593352884
33.16,1.46627565982405
33.168,1.45259042033236
33.176,1.44086021505376
33.184,1.43108504398827
33.192,1.42326490713587
33.2,1.41544477028348
33.208,1.41153470185728
33.216,1.40762463343109
33.224,1.39980449657869
33.232,1.38905180840665
33.24,1.37634408602151
33.248,1.36265884652981
33.256,1.34799608993157
33.264,1.33333333333333
33.272,1.31964809384164
33.28,1.30596285434995
33.288,1.29325513196481
33.296,1.28250244379277
33.304,1.27370478983382
33.312,1.26979472140762
33.32,1.26783968719453
33.328,1.26295210166178
33.336,1.25415444770283
33.344,1.24340175953079
33.352,1.2316715542522
33.36,1.21896383186706
33.368,1.20625610948192
33.376,1.19257086999022
33.384,1.18084066471163
33.392,1.16911045943304
33.4,1.158357771261
33.408,1.1524926686217
33.416,1.1485826001955
33.424,1.14173998044966
33.432,1.13391984359726
33.44,1.12414467253177
33.448,1.11436950146628
33.456,1.10557184750733
33.464,1.09970674486804
33.472,1.10068426197458
33.48,1.11436950146628
33.488,1.14369501466276
33.496,1.19061583577713
33.504,1.25610948191593
33.512,1.32649071358749
33.52,1.40273704789834
33.528,1.49364613880743
33.536,1.59237536656891
33.544,1.6950146627566
33.552,1.79667644183773
33.56,1.89540566959922
33.568,1.99217986314761
33.576,2.08797653958944
33.584,2.18084066471163
33.592,2.27174975562072
33.6,2.35972629521017
33.608,2.43304007820137
33.616,2.49755620723363
33.624,2.57086999022483
33.632,2.64516129032258
33.64,2.71749755620723
33.648,2.78592375366569
33.656,2.8494623655914
33.664,2.90811339198436
33.672,2.95992179863148
33.68,3.00293255131965
33.688,3.03812316715543
33.696,3.06451612903226
33.704,3.08015640273705
33.712,3.0811339198436
33.72,3.0713587487781
33.728,3.05376344086022
33.736,3.02834799608993
33.744,2.9960899315738
33.752,2.95698924731183
33.76,2.91495601173021
33.768,2.87096774193548
33.776,2.82795698924731
33.784,2.78299120234604
33.792,2.73704789833822
33.8,2.69208211143695
33.808,2.65004887585533
33.816,2.6099706744868
33.824,2.56695992179863
33.832,2.52199413489736
33.84,2.47702834799609
33.848,2.43206256109482
33.856,2.386119257087
33.864,2.33919843597263
33.872,2.29227761485826
33.88,2.24535679374389
33.888,2.19648093841642
33.896,2.1485826001955
33.904,2.10068426197458
33.912,2.05962854349951
33.92,2.02443792766373
33.928,1.98826979472141
33.936,1.95210166177908
33.944,1.9169110459433
33.952,1.88269794721408
33.96,1.8475073313783
33.968,1.81133919843597
33.976,1.77517106549365
33.984,1.73900293255132
33.992,1.70478983382209
34.0,1.67253176930596
34.008,1.64613880742913
34.016,1.62267839687195
34.024,1.59628543499511
34.032,1.56989247311828
34.04,1.54349951124145
34.048,1.51710654936461
34.056,1.49071358748778
34.064,1.46432062561095
34.072,1.43792766373412
34.08,1.41251221896383
34.088,1.38905180840665
34.096,1.36754643206256
34.104,1.34701857282502
34.112,1.33137829912023
34.12,1.31867057673509
34.128,1.30205278592375
34.136,1.28445747800587
34.144,1.26490713587488
34.152,1.24535679374389
34.16,1.22482893450635
34.168,1.20430107526882
34.176,1.18475073313783
34.184,1.16911045943304
34.192,1.16129032258065
34.2,1.16520039100684
34.208,1.17986314760508
34.216,1.20918866080156
34.224,1.25610948191593
34.232,1.31769305962854
34.24,1.39296187683284
34.248,1.47702834799609
34.256,1.56500488758553
34.264,1.65298142717498
34.272,1.74095796676442
34.28,1.82600195503421
34.288,1.90713587487781
34.296,1.98338220918866
34.304,2.05767350928641
34.312,2.11925708699902
34.32,2.17399804496579
34.328,2.2336265884653
34.336,2.29521016617791
34.344,2.35679374389052
34.352,2.41642228739003
34.36,2.47311827956989
34.368,2.52492668621701
34.376,2.57282502443793
34.384,2.61681329423265
34.392,2.65689149560117
34.4,2.69012707722385
34.408,2.70967741935484
34.416,2.72140762463343
34.424,2.73118279569892
34.432,2.73216031280547
34.44,2.72336265884653
34.448,2.70576735092864
34.456,2.68035190615836
34.464,2.65004887585533
34.472,2.61485826001955
34.48,2.57575757575758
34.488,2.5386119257087
34.496,2.50244379276637
34.504,2.46627565982405
34.512,2.43206256109482
34.52,2.39980449657869
34.528,2.36461388074291
34.536,2.32649071358749
34.544,2.28739002932551
34.552,2.24633431085044
34.56,2.20430107526882
34.568,2.16129032258065
34.576,2.11827956989247
34.584,2.0752688172043
34.592,2.03225806451613
34.6,1.98924731182796
34.608,1.95112414467253
34.616,1.91593352883675
34.624,1.87878787878788
34.632,1.841642228739
34.64,1.80449657869013
34.648,1.7683284457478
34.656,1.73411534701857
34.664,1.70185728250244
34.672,1.66959921798631
34.68,1.63734115347019
34.688,1.60508308895406
34.696,1.57282502443793
34.704,1.5405669599218
34.712,1.51319648093842
34.72,1.49071358748778
34.728,1.46627565982405
34.736,1.44086021505376
34.744,1.41544477028348
34.752,1.39100684261975
34.76,1.36754643206256
34.768,1.34408602150538
34.776,1.32062561094819
34.784,1.29814271749756
34.792,1.27663734115347
34.8,1.25415444770283
34.808,1.23655913978495
34.816,1.22287390029326
34.824,1.20625610948192
34.832,1.18866080156403
34.84,1.17399804496579
34.848,1.16715542521994
34.856,1.17008797653959
34.864,1.18572825024438
34.872,1.21700879765396
34.88,1.26392961876833
34.888,1.32355816226784
34.896,1.39296187683284
34.904,1.4672531769306
34.912,1.53372434017595
34.92,1.59433040078201
34.928,1.65982404692082
34.936,1.72629521016618
34.944,1.79276637341153
34.952,1.85826001955034
34.96,1.9227761485826
34.968,1.98729227761486
34.976,2.02737047898338
34.984,2.05376344086022
34.992,2.09677419354839
35.0,2.14760508308895
35.008,2.19159335288368
35.016,2.23264907135875
35.024,2.27956989247312
35.032,2.32551319648094
35.04,2.37047898338221
35.048,2.41055718475073
35.056,2.44379276637341
35.064,2.4692082111437
35.072,2.48484848484848
35.08,2.48973607038123
35.088,2.48387096774194
35.096,2.46823069403715
35.104,2.44672531769306
35.112,2.42033235581623
35.12,2.3880742913001
35.128,2.35386119257087
35.136,2.31964809384164
35.144,2.28641251221896
35.152,2.25317693059629
35.16,2.21994134897361
35.168,2.18670576735093
35.176,2.1524926686217
35.184,2.11730205278592
35.192,2.08211143695015
35.2,2.04692082111437
35.208,2.01564027370479
35.216,1.98729227761486
35.224,1.95601173020528
35.232,1.9247311827957
35.24,1.89345063538612
35.248,1.86021505376344
35.256,1.82697947214076
35.264,1.79374389051808
35.272,1.75855327468231
35.28,1.72434017595308
35.288,1.69012707722385
35.296,1.65493646138807
35.304,1.62658846529814
35.312,1.60215053763441
35.32,1.57575757575758
35.328,1.55034213098729
35.336,1.52785923753666
35.344,1.51319648093842
35.352,1.50733137829912
35.36,1.51221896383187
35.368,1.52883675464321
35.376,1.55522971652004
35.384,1.59042033235582
35.392,1.63049853372434
35.4,1.67350928641251
35.408,1.71260997067449
35.416,1.74877810361681
35.424,1.78787878787879
35.432,1.82600195503421
35.44,1.86217008797654
35.448,1.89736070381232
35.456,1.93157380254154
35.464,1.96383186705767
35.472,1.9941348973607
35.48,2.02150537634409
35.488,2.04594330400782
35.496,2.06647116324536
35.504,2.0791788856305
35.512,2.08504398826979
35.52,2.08504398826979
35.528,2.07624633431085
35.536,2.06158357771261
35.544,2.04105571847507
35.552,2.01857282502444
35.56,1.99706744868035
35.568,1.97653958944282
35.576,1.95894428152493
35.584,1.94428152492669
35.592,1.92961876832845
35.6,1.91593352883675
35.608,1.90322580645161
35.616,1.88954056695992
35.624,1.87194525904203
35.632,1.8494623655914
35.64,1.82404692082111
35.648,1.79667644183773
35.656,1.76539589442815
35.664,1.73118279569892
35.672,1.69403714565005
35.68,1.65395894428153
35.688,1.61290322580645
35.696,1.57086999022483
35.704,1.53567937438905
35.712,1.50537634408602
35.72,1.47311827956989
35.728,1.44379276637341
35.736,1.41837732160313
35.744,1.39687194525904
35.752,1.37732160312805
35.76,1.35874877810362
35.768,1.34017595307918
35.776,1.31964809384164
35.784,1.29814271749756
35.792,1.27565982404692
35.8,1.25219941348974
35.808,1.23264907135875
35.816,1.21505376344086
35.824,1.19354838709677
35.832,1.17302052785924
35.84,1.1524926686217
35.848,1.13294232649071
35.856,1.11241446725318
35.864,1.09286412512219
35.872,1.07233626588465
35.88,1.04887585532747
35.888,1.02248289345064
35.896,0.993157380254154
35.904,0.96871945259042
35.912,0.949169110459433
35.92,0.927663734115347
35.928,0.913000977517107
35.936,0.911045943304008
35.944,0.927663734115347
35.952,0.965786901270772
35.96,1.02541544477028
35.968,1.10361681329423
35.976,1.19648093841642
35.984,1.29814271749756
35.992,1.40566959921799
36.0,1.51515151515152
36.008,1.61094819159335
36.016,1.69990224828935
36.024,1.79960899315738
36.032,1.90518084066471
36.04,2.01270772238514
36.048,2.12218963831867
36.056,2.23069403714565
36.064,2.33528836754643
36.072,2.43401759530792
36.08,2.52590420332356
36.088,2.60899315738025
36.096,2.68426197458456
36.104,2.74193548387097
36.112,2.78690127077224
36.12,2.83479960899316
36.128,2.88172043010753
36.136,2.9227761485826
36.144,2.95796676441838
36.152,2.98533724340176
36.16,3.0039100684262
36.168,3.00977517106549
36.176,3.00293255131965
36.184,2.98435972629521
36.192,2.95503421309873
36.2,2.9188660801564
36.208,2.88074291300098
36.216,2.841642228739
36.224,2.80156402737048
36.232,2.76050830889541
36.24,2.71945259042033
36.248,2.67839687194526
36.256,2.63734115347019
36.264,2.59726295210166
36.272,2.55816226783969
36.28,2.52003910068426
36.288,2.47996089931574
36.296,2.43890518084066
36.304,2.39882697947214
36.312,2.35972629521017
36.32,2.31671554252199
36.328,2.27174975562072
36.336,2.2258064516129
36.344,2.17790811339198
36.352,2.13000977517107
36.36,2.08406647116325
36.368,2.03910068426197
36.376,1.99511241446725
36.384,1.95307917888563
36.392,1.91006842619746
36.4,1.86705767350929
36.408,1.82991202346041
36.416,1.79569892473118
36.424,1.75659824046921
36.432,1.71456500488759
36.44,1.67253176930596
36.448,1.63245356793744
36.456,1.59628543499511
36.464,1.56109481915934
36.472,1.52883675464321
36.48,1.50048875855327
36.488,1.47311827956989
36.496,1.44379276637341
36.504,1.41935483870968
36.512,1.39784946236559
36.52,1.37438905180841
36.528,1.34799608993157
36.536,1.32160312805474
36.544,1.29521016617791
36.552,1.26881720430108
36.56,1.24437927663734
36.568,1.22091886608016
36.576,1.19745845552297
36.584,1.17302052785924
36.592,1.14760508308895
36.6,1.12121212121212
36.608,1.09970674486804
36.616,1.08015640273705
36.624,1.05571847507331
36.632,1.03128054740958
36.64,1.01075268817204
36.648,0.999022482893451
36.656,1.0
36.664,1.01857282502444
36.672,1.05474095796676
36.68,1.10654936461388
36.688,1.17106549364614
36.696,1.24340175953079
36.704,1.31182795698925
36.712,1.3782991202346
36.72,1.45161290322581
36.728,1.52883675464321
36.736,1.6080156402737
36.744,1.68621700879765
36.752,1.76539589442815
36.76,1.8455522971652
36.768,1.9247311827957
36.776,2.00488758553275
36.784,2.0830889540567
36.792,2.158357771261
36.8,2.23069403714565
36.808,2.28934506353861
36.816,2.33919843597263
36.824,2.39296187683284
36.832,2.44574780058651
36.84,2.49462365591398
36.848,2.53763440860215
36.856,2.57282502443793
36.864,2.59628543499511
36.872,2.6080156402737
36.88,2.6080156402737
36.888,2.59433040078201
36.896,2.56891495601173
36.904,2.53567937438905
36.912,2.49755620723363
36.92,2.45454545454545
36.928,2.40957966764418
36.936,2.36656891495601
36.944,2.32649071358749
36.952,2.28641251221896
36.96,2.24633431085044
36.968,2.20625610948192
36.976,2.16422287390029
36.984,2.12023460410557
36.992,2.0733137829912
37.0,2.03030303030303
37.008,1.98826979472141
37.016,1.94134897360704
37.024,1.90420332355816
37.032,1.87292277614858
37.04,1.83479960899316
37.048,1.79472140762463
37.056,1.75464320625611
37.064,1.71554252199413
37.072,1.68035190615836
37.08,1.65004887585533
37.088,1.62267839687195
37.096,1.59628543499511
37.104,1.57478005865103
37.112,1.55425219941349
37.12,1.52981427174976
37.128,1.50342130987292
37.136,1.47702834799609
37.144,1.45161290322581
37.152,1.42619745845552
37.16,1.39980449657869
37.168,1.37438905180841
37.176,1.34799608993157
37.184,1.32258064516129
37.192,1.29814271749756
37.2,1.27956989247312
37.208,1.26392961876833
37.216,1.24437927663734
37.224,1.22287390029326
37.232,1.20136852394917
37.24,1.17986314760508
37.248,1.15738025415445
37.256,1.13587487781036
37.264,1.11436950146628
37.272,1.09286412512219
37.28,1.07429130009775
37.288,1.05865102639296
37.296,1.04887585532747
37.304,1.04985337243402
37.312,1.06256109481916
37.32,1.08406647116325
37.328,1.11730205278592
37.336,1.16324535679374
37.344,1.21896383186706
37.352,1.28054740957967
37.36,1.34604105571847
37.368,1.41153470185728
37.376,1.47702834799609
37.384,1.54349951124145
37.392,1.6099706744868
37.4,1.66862170087977
37.408,1.72140762463343
37.416,1.77810361681329
37.424,1.83577712609971
37.432,1.89345063538612
37.44,1.95112414467253
37.448,2.00684261974585
37.456,2.06060606060606
37.464,2.11241446725318
37.472,2.16129032258065
37.48,2.20723362658847
37.488,2.24828934506354
37.496,2.28347996089932
37.504,2.30596285434995
37.512,2.31867057673509
37.52,2.32551319648094
37.528,2.32258064516129
37.536,2.30987292277615
37.544,2.28836754643206
37.552,2.25904203323558
37.56,2.2258064516129
37.568,2.18963831867058
37.576,2.15347018572825
37.584,2.12023460410557
37.592,2.08993157380254
37.6,2.06353861192571
37.608,2.04007820136852
37.616,2.01466275659824
37.624,1.98631476050831
37.632,1.95698924731183
37.64,1.9286412512219
37.648,1.89931573802542
37.656,1.86803519061584
37.664,1.83577712609971
37.672,1.80254154447703
37.68,1.76735092864125
37.688,1.73313782991202
37.696,1.70087976539589
37.704,1.67448680351906
37.712,1.65004887585533
37.72,1.62267839687195
37.728,1.59433040078201
37.736,1.56793743890518
37.744,1.54154447702835
37.752,1.51417399804497
37.76,1.48778103616813
37.768,1.46236559139785
37.776,1.43695014662757
37.784,1.41153470185728
37.792,1.38709677419355
37.8,1.36852394916911
37.808,1.35386119257087
37.816,1.33822091886608
37.824,1.32258064516129
37.832,1.3088954056696
37.84,1.29814271749756
37.848,1.29227761485826
37.856,1.29130009775171
37.864,1.29618768328446
37.872,1.3030303030303
37.88,1.3108504398827
37.888,1.31964809384164
37.896,1.32746823069404
37.904,1.33431085043988
37.912,1.33919843597263
37.92,1.33919843597263
37.928,1.33528836754643
37.936,1.32746823069404
37.944,1.3147605083089
37.952,1.29814271749756
37.96,1.27956989247312
37.968,1.26001955034213
37.976,1.24046920821114
37.984,1.22091886608016
37.992,1.20430107526882
38.0,1.19354838709677
38.008,1.18670576735093
38.016,1.18084066471163
38.024,1.17497556207234
38.032,1.17106549364614
38.04,1.16715542521994
38.048,1.16422287390029
38.056,1.15933528836755
38.064,1.1524926686217
38.072,1.14369501466276
38.08,1.13489736070381
38.088,1.12609970674487
38.096,1.11730205278592
38.104,1.11143695014663
38.112,1.10752688172043
38.12,1.09970674486804
38.128,1.08993157380254
38.136,1.0811339198436
38.144,1.07233626588465
38.152,1.06451612903226
38.16,1.05767350928641
38.168,1.05083088954057
38.176,1.04398826979472
38.184,1.03714565004888
38.192,1.02932551319648
38.2,1.02639296187683
38.208,1.02541544477028
38.216,1.02248289345064
38.224,1.01759530791789
38.232,1.01173020527859
38.24,1.0058651026393
38.248,1.0
38.256,0.994134897360704
38.264,0.988269794721408
38.272,0.982404692082111
38.28,0.977517106549365
38.288,0.974584555229717
38.296,0.972629521016618
38.304,0.973607038123167
38.312,0.975562072336266
38.32,0.974584555229717
38.328,0.971652003910068
38.336,0.967741935483871
38.344,0.965786901270772
38.352,0.96871945259042
38.36,0.980449657869013
38.368,1.00488758553275
38.376,1.04496578690127
38.384,1.09970674486804
38.392,1.16617790811339
38.4,1.2336265884653
38.408,1.30205278592375
38.416,1.3802541544477
38.424,1.4613880742913
38.432,1.54154447702835
38.44,1.61876832844575
38.448,1.69208211143695
38.456,1.76148582600196
38.464,1.83088954056696
38.472,1.90127077223851
38.48,1.96969696969697
38.488,2.03616813294233
38.496,2.10166177908113
38.504,2.1564027370479
38.512,2.20430107526882
38.52,2.25708699902248
38.528,2.30987292277615
38.536,2.35972629521017
38.544,2.40371456500489
38.552,2.44086021505376
38.56,2.47018572825024
38.568,2.49169110459433
38.576,2.50342130987292
38.584,2.50635386119257
38.592,2.49951124144673
38.6,2.48680351906158
38.608,2.46823069403715
38.616,2.44672531769306
38.624,2.42521994134897
38.632,2.40371456500489
38.64,2.38123167155425
38.648,2.35874877810362
38.656,2.33626588465298
38.664,2.31182795698925
38.672,2.28445747800587
38.68,2.25513196480938
38.688,2.2238514173998
38.696,2.19257086999022
38.704,2.16129032258065
38.712,2.12903225806452
38.72,2.09579667644184
38.728,2.06158357771261
38.736,2.02737047898338
38.744,1.99217986314761
38.752,1.95698924731183
38.76,1.9227761485826
38.768,1.88954056695992
38.776,1.85923753665689
38.784,1.82991202346041
38.792,1.80156402737048
38.8,1.77810361681329
38.808,1.75855327468231
38.816,1.73704789833822
38.824,1.71260997067449
38.832,1.6891495601173
38.84,1.66568914956012
38.848,1.64125122189638
38.856,1.61681329423265
38.864,1.59139784946237
38.872,1.56402737047898
38.88,1.5366568914956
38.888,1.50928641251222
38.896,1.48680351906158
38.904,1.4672531769306
38.912,1.44672531769306
38.92,1.42619745845552
38.928,1.40273704789834
38.936,1.38123167155425
38.944,1.36168132942326
38.952,1.34408602150538
38.96,1.32746823069404
38.968,1.3108504398827
38.976,1.29521016617791
38.984,1.27956989247312
38.992,1.26588465298143
39.0,1.25708699902248
39.008,1.25024437927664
39.016,1.23851417399804
39.024,1.2238514173998
39.032,1.20625610948192
39.04,1.18670576735093
39.048,1.16813294232649
39.056,1.1505376344086
39.064,1.13587487781036
39.072,1.16226783968719
39.08,1.21603128054741
39.088,1.25806451612903
39.096,1.29912023460411
39.104,1.34701857282502
39.112,1.41153470185728
39.12,1.49071358748778
39.128,1.58064516129032
39.136,1.67546432062561
39.144,1.77126099706745
39.152,1.86803519061584
39.16,1.96578690127077
39.168,2.06256109481916
39.176,2.158357771261
39.184,2.25513196480938
39.192,2.35288367546432
39.2,2.43597262952102
39.208,2.51124144672532
39.216,2.59530791788856
39.224,2.68328445747801
39.232,2.772238514174
39.24,2.85923753665689
39.248,2.94232649071359
39.256,3.01955034213099
39.264,3.08993157380254
39.272,3.15347018572825
39.28,3.21016617790811
39.288,3.25806451612903
39.296,3.28836754643206
39.304,3.3049853372434
39.312,3.31964809384164
39.32,3.32649071358749
39.328,3.32258064516129
39.336,3.30596285434995
39.344,3.27956989247312
39.352,3.24437927663734
39.36,3.20430107526882
39.368,3.16226783968719
39.376,3.12218963831867
39.384,3.0811339198436
39.392,3.03812316715543
39.4,2.99706744868035
39.408,2.95796676441838
39.416,2.91593352883675
39.424,2.87194525904203
39.432,2.82404692082111
39.44,2.77517106549365
39.448,2.72434017595308
39.456,2.67155425219941
39.464,2.61876832844575
39.472,2.56598240469208
39.48,2.51417399804497
39.488,2.4633431085044
39.496,2.41739980449658
39.504,2.37536656891496
39.512,2.32942326490714
39.52,2.28445747800587
39.528,2.24046920821114
39.536,2.19648093841642
39.544,2.1524926686217
39.552,2.11045943304008
39.56,2.06842619745846
39.568,2.02737047898338
39.576,1.98631476050831
39.584,1.94623655913978
39.592,1.90713587487781
39.6,1.87292277614858
39.608,1.841642228739
39.616,1.80449657869013
39.624,1.7663734115347
39.632,1.72825024437928
39.64,1.69012707722385
39.648,1.65395894428153
39.656,1.6177908113392
39.664,1.58162267839687
39.672,1.54740957966764
39.68,1.51319648093842
39.688,1.47996089931574
39.696,1.455522971652
39.704,1.43597262952102
39.712,1.41251221896383
39.72,1.39100684261975
39.728,1.37438905180841
39.736,1.36852394916911
39.744,1.37634408602151
39.752,1.40175953079179
39.76,1.44672531769306
39.768,1.50830889540567
39.776,1.58260019550342
39.784,1.66471163245357
39.792,1.75366568914956
39.8,1.83479960899316
39.808,1.90811339198436
39.816,1.98826979472141
39.824,2.0713587487781
39.832,2.15542521994135
39.84,2.23949169110459
39.848,2.32453567937439
39.856,2.41055718475073
39.864,2.49657869012708
39.872,2.58357771260997
39.88,2.66666666666667
39.888,2.74584555229716
39.896,2.81036168132942
39.904,2.86510263929619
39.912,2.9266862170088
39.92,2.98924731182796
39.928,3.04887585532747
39.936,3.10263929618768
39.944,3.14956011730205
39.952,3.18768328445748
39.96,3.21603128054741
39.968,3.2316715542522
39.976,3.23264907135875
39.984,3.21896383186706
39.992,3.19159335288368
40.0,3.1564027370479
40.008,3.11632453567937
40.016,3.07038123167155
40.024,3.02248289345064
40.032,2.97458455522972
40.04,2.92766373411535
40.048,2.88074291300098
40.056,2.83479960899316
40.064,2.78690127077224
40.072,2.73802541544477
40.08,2.6871945259042
40.088,2.63440860215054
40.096,2.58651026392962
40.104,2.53958944281525
40.112,2.48778103616813
40.12,2.43499511241447
40.128,2.3822091886608
40.136,2.32942326490714
40.144,2.27956989247312
40.152,2.23264907135875
40.16,2.18572825024438
40.168,2.14173998044966
40.176,2.09872922776149
40.184,2.05571847507331
40.192,2.01368523949169
40.2,1.97751710654936
40.208,1.94525904203324
40.216,1.91202346041056
40.224,1.88172043010753
40.232,1.85630498533724
40.24,1.83870967741935
40.248,1.83186705767351
40.256,1.83675464320626
40.264,1.8533724340176
40.272,1.87878787878788
40.28,1.91006842619746
40.288,1.94525904203324
40.296,1.97556207233627
40.304,2.0019550342131
40.312,2.02932551319648
40.32,2.05474095796676
40.328,2.0791788856305
40.336,2.10068426197458
40.344,2.11827956989247
40.352,2.13294232649071
40.36,2.14369501466276
40.368,2.1505376344086
40.376,2.15151515151515
40.384,2.14565004887586
40.392,2.13196480938416
40.4,2.11632453567937
40.408,2.09579667644184
40.416,2.06744868035191
40.424,2.03616813294233
40.432,2.00488758553275
40.44,1.97458455522972
40.448,1.94819159335288
40.456,1.9266862170088
40.464,1.90811339198436
40.472,1.89051808406647
40.48,1.87194525904203
40.488,1.8514173998045
40.496,1.83186705767351
40.504,1.81329423264907
40.512,1.79081133919844
40.52,1.7644183773216
40.528,1.73607038123167
40.536,1.70772238514174
40.544,1.67839687194526
40.552,1.64907135874878
40.56,1.61876832844575
40.568,1.58944281524927
40.576,1.56207233626588
40.584,1.53567937438905
40.592,1.51710654936461
40.6,1.50244379276637
40.608,1.48484848484848
40.616,1.4652981427175
40.624,1.44672531769306
40.632,1.42815249266862
40.64,1.40957966764418
40.648,1.3900293255132
40.656,1.36950146627566
40.664,1.34799608993157
40.672,1.32844574780059
40.68,1.3108504398827
40.688,1.29423264907136
40.696,1.28347996089932
40.704,1.27663734115347
40.712,1.26588465298143
40.72,1.25415444770283
40.728,1.24046920821114
40.736,1.2238514173998
40.744,1.20723362658847
40.752,1.19159335288368
40.76,1.17595307917889
40.768,1.16129032258065
40.776,1.1505376344086
40.784,1.14760508308895
40.792,1.1564027370479
40.8,1.17790811339198
40.808,1.21700879765396
40.816,1.27761485826002
40.824,1.35679374389052
40.832,1.44965786901271
40.84,1.55229716520039
40.848,1.66080156402737
40.856,1.76930596285435
40.864,1.87292277614858
40.872,1.97360703812317
40.88,2.0733137829912
40.888,2.17302052785924
40.896,2.25806451612903
40.904,2.33431085043988
40.912,2.41935483870968
